0
0
0
0
0
0
0
0
0
0
0
0.01
0.01
0
-0.03
-0.05
-0.05
0
0.13
0.36
0.66
1.01
1.37
1.72
2.06
2.4
2.79
3.24
3.8
4.42
5.06
5.66
6.2
6.68
7.15
7.68
8.31
9.14
10.09
11.04
11.88
12.56
13.14
13.76
14.65
15.96
17.91
20.32
22.9
25.38
27.58
29.57
31.68
34.32
37.81
42.54
48.15
54.1
59.83
64.97
69.58
74.14
79.34
85.71
93.76
103
112.62
121.73
129.77
136.75
143.3
150.75
157.77
166.64
177.95
191.79
206.97
220.57
228.25
225.36
208.53
176.87
132.76
80.05
23.07
-34.94
-92.44
-149.16
-205.23
-260.37
-313.74
-363.87
-409.83
-450.91
-486.5
-515.74
-537.23
-549.22
-549.96
-538.37
-514.21
-478.68
-433.88
-382.45
-327.01
-269.82
-212.6
-156.63
-102.95
-52.43
-6.05
35.34
71.1
100.97
125.11
143.99
158.3
168.73
175.88
180.16
181.88
181.3
178.72
174.48
168.95
162.49
155.4
147.91
140.16
132.31
124.46
116.71
109.12
101.69
94.35
87.05
79.76
72.56
65.6
59.08
53.14
47.79
42.87
38.12
33.29
28.27
23.16
18.27
13.97
10.5
7.86
5.73
3.63
1.13
-1.96
-5.45
-8.85
-11.61
-13.4
-14.23
-14.5
-14.78
-15.56
-17.14
-19.65
-23.03
-26.94
-30.61
-32.7
-31.66
-26.25
-16.29
-3
11.21
23.66
32.49
37.36
39.34
40.04
40.62
41.16
40.87
38.86
34.86
29.52
24.07
19.63
16.65
14.83
13.41
11.71
9.54
7.23
5.31
4.14
3.66
3.4
2.85
1.72
0.2
-1.02
-1.09
0.59
4.05
8.62
13.18
16.58
18.09
17.59
15.61
12.91
10.24
7.97
6.14
4.55
3
1.47
0.12
-0.73
-0.89
-0.31
0.78
2.07
3.31
4.32
5.12
5.8
6.44
7.07
7.68
8.23
8.67
8.9
8.74
8.06
6.84
5.2
3.35
1.56
-0.25
-2.27
-4.77
-7.91
-11.58
-15.47
-19.06
-21.8
-23.17
-22.81
-20.54
-16.5
-11.2
-5.52
-0.43
3.23
5.05
5.15
3.97
2.12
0.13
-1.7
-3.21
-4.4
-5.32
-6
-6.49
-6.77
-6.81
-6.55
-5.98
-5.21
-4.43
-3.83
-3.59
-3.74
-4.25
-5.07
-6.1
-7.23
-8.34
-9.33
-10.13
-10.76
-11.29
-11.83
-12.52
-13.36
-14.25
-15.01
-15.53
-15.81
-15.99
-16.35
-17.18
-18.79
-21.21
-24.17
-27.04
-29.02
-29.27
-27.16
-22.44
-15
-5.51
5
15.36
24.52
31.79
36.83
39.67
40.55
39.85
37.98
35.37
32.4
29.4
26.6
24.17
22.23
20.85
20.03
19.63
19.4
19.12
18.65
17.94
17.04
16.02
14.87
13.46
11.61
9.16
6.11
2.56
-1.32
-5.33
-9.32
-13.2
-16.87
-20.27
-23.35
-26.08
-28.59
-31.17
-34.16
-37.83
-42.19
-46.74
-50.54
-52.38
-51.14
-46.23
-37.83
-26.87
-14.7
-2.73
7.97
16.81
23.58
28.34
31.24
32.4
32
30.27
27.59
24.44
21.35
18.81
17.15
16.5
16.77
17.62
18.6
19.27
19.33
18.74
17.66
16.31
14.77
12.92
10.46
7.12
2.89
-1.91
-6.74
-11.05
-14.58
-17.44
-20
-22.77
-26.16
-30.4
-35.48
-41.21
-47.09
-52.34
-55.92
-56.7
-53.85
-47.12
-37
-24.69
-11.71
0.47
10.79
18.77
24.45
28.18
30.36
31.25
30.99
29.69
27.61
25.26
23.2
21.95
21.64
21.96
22.36
22.27
21.41
19.87
17.97
15.98
13.99
11.84
9.4
6.72
4.16
2.16
0.99
0.52
0.21
-0.77
-3.1
-7.12
-12.75
-19.62
-27.31
-35.38
-43.33
-50.4
-55.55
-57.7
-56.11
-50.75
-42.38
-32.25
-21.65
-11.44
-1.94
6.95
15.33
23.1
29.87
35.26
39.18
42.03
44.65
47.95
52.5
58.16
64.05
68.95
71.88
72.7
72.47
73.36
78.05
88.79
106.33
129.22
153.84
175.3
188.95
191.95
184.23
168.32
148.25
128.05
110.53
96.77
86.46
78.48
71.65
65.12
58.46
51.65
44.93
38.53
32.32
25.5
16.55
3.63
-14.86
-39.56
-69.71
-103.07
-136.23
-165.37
-187.08
-199.33
-202.07
-197.17
-187.76
-177.12
-167.57
-159.82
-153.14
-145.97
-136.65
-123.86
-106.81
-85.27
-59.86
-32.28
-5.4
17.17
32.11
37.52
33.51
22.26
7.07
-8.66
-22.44
-33
-40.14
-44.25
-45.85
-45.28
-42.65
-37.89
-30.84
-21.45
-9.98
2.87
16.07
28.52
39.46
48.69
56.65
64.12
71.82
80.1
88.77
97.11
104.01
108.14
108.12
102.87
92.05
76.45
58.07
39.79
24.6
14.73
11.04
12.84
18.26
24.94
30.86
34.81
36.68
37.27
37.87
39.87
44.46
52.56
64.72
80.96
100.5
121.58
141.53
157.28
166.08
166.16
157.1
139.63
115.33
86.14
54.15
21.51
-9.52
-36.78
-58.57
-74.16
-84.23
-90.83
-96.87
-105.06
-116.76
-131.35
-146.36
-158.5
-165.11
-165.08
-159.04
-148.77
-136.27
-123.24
-111.03
-100.93
-94.29
-92.23
-95.34
-103.3
-114.98
-128.77
-142.88
-155.63
-165.53
-171.38
-172.48
-168.86
-161.23
-150.57
-137.53
-122.02
-103.38
-80.99
-54.98
-26.59
2.17
29.14
52.76
72.33
87.83
99.61
108.16
113.98
117.58
119.51
120.15
119.55
117.34
112.84
105.5
95.26
82.75
69.15
55.79
43.6
32.82
22.96
13.17
2.73
-8.62
-20.61
-32.69
-44.35
-55.22
-65.02
-73.22
-79
-81.53
-80.53
-76.73
-71.82
-67.81
-66.12
-66.95
-69.3
-71.68
-72.93
-72.79
-71.84
-71.03
-71.08
-72.24
-74.4
-77.32
-80.83
-84.66
-88.15
-90.04
-88.65
-82.41
-70.6
-53.84
-34.07
-13.96
3.93
17.95
27.61
33.45
36.52
37.85
38.14
37.7
36.75
35.51
34.37
33.74
33.87
34.7
35.91
36.99
37.57
37.52
37.03
36.48
36.22
36.34
36.68
36.79
36.16
34.4
31.35
27.18
22.27
17.14
12.24
7.82
3.9
0.23
-3.58
-7.95
-13.11
-19.05
-25.36
-31.28
-35.82
-37.93
-36.82
-32.25
-24.64
-15
-4.59
5.4
14.19
21.47
27.27
31.73
34.99
37.11
38.15
38.25
37.6
36.45
35
33.39
31.74
30.13
28.65
27.37
26.32
25.48
24.8
24.21
23.6
22.84
21.77
20.21
18.01
15.1
11.55
7.51
3.29
-0.81
-4.54
-7.78
-10.62
-13.34
-16.36
-20.11
-24.82
-30.39
-36.23
-41.33
-44.5
-44.67
-41.28
-34.44
-24.97
-14.08
-3.04
7.1
15.74
22.66
27.93
31.68
34.08
35.26
35.4
34.74
33.59
32.27
31.07
30.16
29.53
29.08
28.69
28.28
27.83
27.33
26.74
25.93
24.73
23.02
20.75
18.05
15.12
12.11
9.08
5.95
2.55
-1.21
-5.23
-9.25
-12.94
-16.06
-18.62
-20.84
-23.11
-25.84
-29.35
-33.72
-38.72
-43.78
-47.94
-50.04
-49.04
-44.31
-36.02
-25.11
-13.06
-1.39
8.72
16.77
22.77
27.02
29.85
31.45
31.91
31.31
29.91
28.11
26.38
25.13
24.6
24.76
25.38
26.19
26.9
27.35
27.42
27.02
26.08
24.58
22.56
20.1
17.34
14.31
10.98
7.27
3.14
-1.25
-5.64
-9.68
-13.19
-16.21
-19.07
-22.25
-26.25
-31.34
-37.5
-44.32
-51.03
-56.53
-59.63
-59.29
-54.91
-46.6
-35.19
-22.11
-8.97
2.87
12.57
19.93
25.22
28.95
31.56
33.34
34.45
34.99
35.05
34.78
34.33
33.81
33.32
32.92
32.65
32.52
32.49
32.44
32.2
31.58
30.39
28.54
26.06
23.09
19.85
16.58
13.4
10.31
7.14
3.67
-0.26
-4.66
-9.33
-13.97
-18.25
-22.02
-25.37
-28.65
-32.34
-36.9
-42.49
-48.79
-54.94
-59.65
-61.58
-59.7
-53.71
-44.1
-32.01
-18.9
-6.06
5.52
15.32
23.15
29.02
33.04
35.4
36.4
36.45
36
35.45
35.12
35.14
35.53
36.16
36.89
37.56
38.09
38.45
38.67
38.75
38.61
38.13
37.15
35.65
33.74
31.71
29.85
28.36
27.19
26.07
24.66
22.76
20.39
17.77
15.21
12.95
11
9.11
6.9
3.9
-0.33
-6.13
-13.6
-22.47
-32.02
-41.07
-48.26
-52.39
-52.89
-50
-44.66
-38.12
-31.48
-25.32
-19.73
-14.5
-9.44
-4.6
-0.18
3.63
6.77
9.41
11.77
14.05
16.28
18.42
20.39
22.21
23.97
25.77
27.64
29.4
30.79
31.49
31.26
30.01
27.8
24.79
21.19
17.27
13.23
9.31
5.69
2.51
-0.26
-2.78
-5.33
-8.23
-11.64
-15.54
-19.67
-23.72
-27.51
-31.13
-34.93
-39.31
-44.53
-50.45
-56.45
-61.54
-64.63
-64.73
-61.27
-54.25
-44.22
-32.24
-19.54
-7.36
3.4
12.2
18.93
23.65
26.55
27.82
27.71
26.61
25
23.44
22.34
21.92
22.11
22.68
23.39
24.08
24.71
25.28
25.73
25.87
25.41
24.11
21.86
18.85
15.46
12.15
9.22
6.71
4.38
1.87
-1.07
-4.49
-8.19
-11.82
-15.05
-17.67
-19.75
-21.56
-23.54
-26.14
-29.69
-34.16
-39.16
-43.89
-47.37
-48.62
-46.97
-42.14
-34.38
-24.36
-13.03
-1.49
9.26
18.46
25.68
30.8
33.92
35.26
35.13
33.93
32.1
30.2
28.72
27.98
28.03
28.61
29.33
29.73
29.53
28.64
27.17
25.33
23.33
21.32
19.32
17.17
14.59
11.26
6.92
1.57
-4.58
-11.09
-17.57
-23.73
-29.53
-35.03
-40.25
-44.98
-48.73
-50.85
-50.62
-47.47
-41.04
-31.31
-18.71
-4.15
11.03
25.31
37.29
46.12
51.58
53.99
53.99
52.18
49.02
44.79
39.77
34.32
28.91
24.01
19.96
16.93
14.85
13.5
12.55
11.6
10.31
8.45
6.01
3.22
0.4
-2.07
-3.93
-5.1
-5.61
-5.58
-5.05
-3.99
-2.28
0.21
3.49
7.38
11.53
15.52
18.97
21.64
23.5
24.66
25.33
25.62
25.49
24.63
22.44
18.11
10.94
0.68
-12.26
-26.61
-40.48
-51.75
-58.58
-59.9
-55.69
-46.96
-35.52
-23.47
-12.55
-3.69
3.23
9.18
15.42
22.75
31.19
39.84
47.32
52.35
54.18
52.74
48.46
42.03
34.04
24.99
15.35
5.63
-3.51
-11.29
-17.06
-20.39
-21.27
-20.21
-18.08
-15.85
-14.25
-13.48
-13.24
-12.92
-12.06
-10.55
-8.82
-7.51
-7.19
-8.05
-9.82
-11.97
-14.01
-15.67
-17.01
-18.25
-19.59
-21.04
-22.39
-23.25
-23.28
-22.39
-20.8
-18.96
-17.34
-16.24
-15.61
-15.16
-14.59
-13.7
-12.58
-11.53
-10.9
-11.02
-12.03
-13.89
-16.3
-18.71
-20.39
-20.61
-18.88
-15.26
-10.39
-5.3
-1.07
1.59
2.56
2.32
1.6
1.1
1.19
1.82
2.66
3.34
3.63
3.51
3.12
2.62
2.08
1.56
1.08
0.73
0.69
1.12
2.06
3.42
4.96
6.34
7.24
7.41
6.76
5.36
3.45
1.38
-0.47
-1.74
-2.26
-2.03
-1.27
-0.4
0.09
-0.27
-1.87
-4.87
-9.19
-14.46
-20.02
-24.87
-27.87
-27.99
-24.66
-18.09
-9.28
0.14
8.54
14.76
18.39
19.71
19.39
18.05
16.11
13.84
11.52
9.52
8.27
7.96
8.5
9.37
9.87
9.36
7.56
4.63
1.1
-2.29
-4.9
-6.4
-6.88
-6.83
-6.92
-7.71
-9.34
-11.52
-13.67
-15.23
-15.94
-15.93
-15.66
-15.58
-15.95
-16.73
-17.69
-18.51
-18.9
-18.59
-17.22
-14.45
-10.03
-4.07
2.86
9.82
15.75
19.87
21.88
22.05
20.91
19.07
16.93
14.72
12.56
10.63
9.19
8.46
8.46
8.87
9.09
8.51
6.75
3.88
0.32
-3.32
-6.57
-9.28
-11.6
-13.78
-15.98
-18.13
-19.93
-21.07
-21.4
-21.06
-20.41
-19.93
-19.96
-20.68
-21.99
-23.55
-24.88
-25.4
-24.57
-21.99
-17.55
-11.46
-4.28
3.13
9.86
15.12
18.47
19.84
19.53
17.95
15.54
12.61
9.45
6.33
3.57
1.47
0.18
-0.41
-0.61
-0.81
-1.26
-1.93
-2.61
-3.05
-3.19
-3.18
-3.3
-3.83
-4.83
-6.19
-7.71
-9.13
-10.35
-11.34
-12.16
-12.86
-13.5
-14.12
-14.79
-15.55
-16.32
-16.78
-16.29
-14.13
-9.74
-3.12
4.96
13.18
20.09
24.65
26.64
26.52
25.12
23.12
20.87
18.36
15.55
12.54
9.64
7.19
5.38
4.12
3.16
2.24
1.23
0.17
-0.8
-1.59
-2.22
-2.92
-3.98
-5.65
-7.99
-10.77
-13.55
-15.84
-17.33
-18.01
-18.18
-18.27
-18.68
-19.64
-21.17
-23.03
-24.73
-25.56
-24.7
-21.45
-15.6
-7.64
1.27
9.69
16.38
20.7
22.74
23.02
22.21
20.75
18.85
16.61
14.16
11.79
9.85
8.58
7.98
7.69
7.27
6.37
4.95
3.31
1.92
1.12
0.92
0.97
0.71
-0.26
-2.01
-4.23
-6.45
-8.28
-9.61
-10.63
-11.67
-13.09
-15.09
-17.76
-20.91
-24.08
-26.44
-27.03
-24.96
-19.85
-12.04
-2.61
6.93
15.17
21.19
24.74
26.15
25.99
24.79
22.91
20.56
17.92
15.19
12.59
10.28
8.29
6.54
4.97
3.57
2.43
1.66
1.22
0.92
0.44
-0.49
-1.98
-3.88
-5.9
-7.73
-9.19
-10.28
-11.13
-11.98
-13.08
-14.63
-16.82
-19.76
-23.33
-27.06
-30.01
-30.92
-28.69
-22.86
-13.98
-3.58
6.39
14.22
19.13
21.36
21.89
21.78
21.72
21.84
21.92
21.71
21.1
20.22
19.18
18
16.61
14.94
13.01
11
9.17
7.76
6.87
6.5
6.48
6.5
6.16
5.1
3.08
0.21
-3.1
-6.24
-8.68
-10.21
-11.03
-11.68
-12.76
-14.7
-17.61
-21.26
-25.07
-28.2
-29.57
-28.16
-23.38
-15.39
-5.25
5.3
14.43
20.87
24.24
25.04
24.28
22.91
21.5
20.2
18.87
17.37
15.73
14.13
12.76
11.73
11
10.38
9.68
8.79
7.76
6.71
5.78
4.98
4.22
3.29
2.05
0.51
-1.19
-2.82
-4.26
-5.45
-6.52
-7.58
-8.7
-9.82
-10.79
-11.49
-11.87
-12.02
-12.16
-12.57
-13.48
-15
-17.06
-19.31
-21.09
-21.49
-19.6
-14.8
-7.15
2.55
12.84
22.09
29.02
33.03
34.3
33.5
31.43
28.68
25.57
22.21
18.66
15.15
11.95
9.34
7.42
6.1
5.15
4.33
3.49
2.58
1.69
0.87
0.23
-0.26
-0.65
-1.06
-1.66
-2.51
-3.61
-4.78
-5.79
-6.46
-6.73
-6.72
-6.66
-6.77
-7.11
-7.62
-8.11
-8.45
-8.58
-8.54
-8.42
-8.33
-8.37
-8.62
-9.13
-9.83
-10.6
-11.27
-11.7
-11.87
-11.85
-11.79
-11.87
-12.22
-12.9
-13.9
-15.11
-16.33
-17.2
-17.27
-16.05
-13.15
-8.51
-2.42
4.41
11.01
16.42
19.92
21.29
20.74
18.79
16.06
13.05
10.08
7.34
4.95
3.01
1.58
0.63
0.04
-0.33
-0.65
-0.96
-1.21
-1.3
-1.13
-0.71
-0.14
0.33
0.44
0.02
-0.92
-2.16
-3.32
-4.09
-4.34
-4.16
-3.85
-3.7
-3.87
-4.33
-4.96
-5.65
-6.33
-7.02
-7.71
-8.4
-9.07
-9.75
-10.53
-11.46
-12.42
-13.08
-12.94
-11.52
-8.57
-4.3
0.73
5.73
9.97
12.97
14.62
15.04
14.51
13.29
11.59
9.61
7.54
5.63
4.07
2.99
2.39
2.16
2.13
2.2
2.27
2.32
2.28
2.14
1.82
1.31
0.64
-0.16
-1.03
-1.99
-3.04
-4.17
-5.32
-6.4
-7.27
-7.77
-7.88
-7.68
-7.41
-7.38
-7.84
-8.92
-10.44
-12.01
-13.13
-13.25
-12
-9.24
-5.05
0.29
6.27
12.23
17.44
21.23
23.18
23.25
21.76
19.26
16.36
13.5
10.94
8.81
7.16
6.03
5.36
5.01
4.67
4.03
2.93
1.51
0.08
-0.95
-1.39
-1.34
-1.14
-1.22
-1.87
-3.12
-4.78
-6.52
-8.02
-9.07
-9.62
-9.74
-9.64
-9.59
-9.84
-10.56
-11.66
-12.9
-13.8
-13.82
-12.47
-9.47
-4.88
0.88
7.04
12.68
17.01
19.59
20.39
19.75
18.17
16.08
13.79
11.46
9.28
7.39
5.97
5.09
4.65
4.41
4.12
3.62
2.93
2.24
1.78
1.69
1.99
2.46
2.83
2.81
2.27
1.21
-0.15
-1.57
-2.86
-3.94
-4.87
-5.78
-6.81
-8.03
-9.44
-10.97
-12.39
-13.39
-13.51
-12.32
-9.54
-5.23
0.13
5.76
10.72
14.31
16.16
16.34
15.26
13.41
11.22
8.97
6.76
4.66
2.75
1.17
0.04
-0.57
-0.7
-0.52
-0.2
0.05
0.09
-0.12
-0.52
-0.98
-1.34
-1.52
-1.58
-1.73
-2.21
-3.18
-4.56
-6.07
-7.34
-8.13
-8.42
-8.46
-8.64
-9.24
-10.35
-11.74
-13.03
-13.73
-13.42
-11.85
-9.01
-5.1
-0.54
4.18
8.58
12.26
14.98
16.62
17.21
16.84
15.69
14.02
12.09
10.15
8.4
6.96
5.86
5.07
4.5
4.03
3.58
3.05
2.4
1.65
0.81
-0.07
-1.03
-2.16
-3.57
-5.3
-7.24
-9.17
-10.81
-11.97
-12.68
-13.23
-14.06
-15.51
-17.66
-20.23
-22.6
-24.02
-23.75
-21.23
-16.21
-8.89
0
9.31
17.69
23.99
27.63
28.65
27.72
25.68
23.26
20.85
18.53
16.31
14.21
12.39
10.99
10.05
9.44
8.95
8.38
7.64
6.78
5.92
5.14
4.4
3.55
2.36
0.63
-1.74
-4.63
-7.71
-10.57
-12.85
-14.43
-15.47
-16.36
-17.49
-19.15
-21.36
-23.86
-26.24
-27.96
-28.45
-27.12
-23.55
-17.62
-9.68
-0.63
8.31
15.89
21.25
24.11
24.8
23.93
22.1
19.72
16.95
13.89
10.65
7.51
4.77
2.69
1.36
0.71
0.49
0.45
0.37
0.13
-0.27
-0.74
-1.22
-1.66
-2.16
-2.89
-4.05
-5.71
-7.73
-9.79
-11.49
-12.5
-12.69
-12.24
-11.54
-11.05
-11.19
-12.14
-13.85
-16.02
-18.13
-19.45
-19.18
-16.58
-11.26
-3.47
5.85
15.22
23.08
28.31
30.56
30.25
28.25
25.44
22.41
19.37
16.29
13.19
10.23
7.71
5.87
4.74
4.1
3.6
2.9
1.89
0.66
-0.5
-1.35
-1.81
-2.03
-2.27
-2.8
-3.67
-4.8
-5.96
-6.96
-7.72
-8.25
-8.62
-8.89
-9.14
-9.45
-9.95
-10.76
-11.95
-13.42
-14.83
-15.67
-15.35
-13.4
-9.62
-4.21
2.21
8.73
14.39
18.43
20.51
20.74
19.53
17.42
14.88
12.26
9.82
7.76
6.23
5.27
4.81
4.64
4.56
4.37
3.99
3.42
2.68
1.86
1.04
0.34
-0.17
-0.44
-0.58
-0.73
-1.05
-1.67
-2.57
-3.69
-4.88
-6.01
-7
-7.81
-8.46
-8.95
-9.33
-9.63
-9.89
-10.22
-10.75
-11.56
-12.57
-13.44
-13.59
-12.36
-9.31
-4.51
1.43
7.5
12.63
16.05
17.52
17.3
15.97
14.13
12.23
10.45
8.77
7.16
5.64
4.34
3.39
2.84
2.61
2.53
2.41
2.15
1.77
1.35
0.93
0.49
-0.03
-0.71
-1.55
-2.54
-3.63
-4.84
-6.16
-7.52
-8.75
-9.62
-9.95
-9.71
-9.08
-8.39
-8
-8.12
-8.77
-9.77
-10.84
-11.7
-12.12
-11.85
-10.67
-8.42
-5.15
-1.16
2.93
6.46
8.85
9.91
9.82
9.06
8.07
7.14
6.27
5.33
4.19
2.91
1.69
0.76
0.25
0.14
0.22
0.3
0.26
0.16
0.15
0.35
0.76
1.17
1.31
0.95
0.02
-1.33
-2.79
-4.03
-4.84
-5.12
-4.96
-4.55
-4.19
-4.12
-4.51
-5.37
-6.53
-7.71
-8.62
-8.98
-8.58
-7.27
-4.93
-1.65
2.3
6.43
10.1
12.81
14.28
14.63
14.15
13.2
12.02
10.69
9.25
7.75
6.28
4.97
3.91
3.1
2.46
1.93
1.44
0.96
0.47
-0.01
-0.49
-0.99
-1.52
-2.14
-2.88
-3.74
-4.65
-5.51
-6.15
-6.53
-6.65
-6.69
-6.89
-7.49
-8.62
-10.18
-11.88
-13.25
-13.83
-13.25
-11.38
-8.36
-4.51
-0.32
3.72
7.18
9.78
11.4
12.1
12.03
11.37
10.33
9.07
7.83
6.9
6.53
6.86
7.76
8.85
9.61
9.7
9
7.71
6.22
4.87
3.86
3.1
2.38
1.41
0.02
-1.79
-3.87
-5.96
-7.83
-9.32
-10.41
-11.18
-11.77
-12.36
-13.03
-13.86
-14.76
-15.52
-15.76
-15.04
-12.94
-9.35
-4.51
0.91
6.07
10.19
12.8
13.83
13.52
12.31
10.57
8.58
6.55
4.63
3.03
1.94
1.52
1.74
2.45
3.35
4.15
4.64
4.77
4.67
4.49
4.37
4.31
4.19
3.85
3.15
2.05
0.68
-0.75
-1.99
-2.9
-3.49
-3.89
-4.33
-4.99
-5.92
-7.01
-8.03
-8.68
-8.67
-7.82
-6.07
-3.5
-0.36
3.03
6.32
9.13
11.24
12.51
12.98
12.78
12.08
11.04
9.78
8.43
7.07
5.8
4.71
3.85
3.24
2.83
2.54
2.29
2.03
1.75
1.53
1.4
1.33
1.18
0.78
-0.03
-1.23
-2.69
-4.22
-5.61
-6.8
-7.8
-8.71
-9.59
-10.45
-11.27
-11.99
-12.51
-12.66
-12.15
-10.7
-8.12
-4.5
-0.22
4.09
7.78
10.39
11.78
12.13
11.75
10.94
9.88
8.6
7.15
5.62
4.21
3.11
2.46
2.2
2.15
2.1
1.92
1.55
1.03
0.35
-0.48
-1.44
-2.46
-3.41
-4.14
-4.58
-4.75
-4.79
-4.86
-5.12
-5.66
-6.54
-7.79
-9.37
-11.11
-12.67
-13.58
-13.35
-11.66
-8.49
-4.22
0.51
4.97
8.55
10.9
12
12.04
11.32
10.14
8.74
7.28
5.88
4.64
3.58
2.66
1.84
1.04
0.25
-0.55
-1.34
-2.14
-2.96
-3.84
-4.78
-5.76
-6.67
-7.38
-7.79
-7.85
-7.6
-7.24
-7.04
-7.27
-8.13
-9.68
-11.74
-13.96
-15.76
-16.43
-15.23
-11.68
-5.8
1.77
9.84
17.04
22.22
24.84
25.05
23.46
20.84
17.76
14.58
11.44
8.5
5.97
4.01
2.67
1.85
1.28
0.7
0
-0.82
-1.62
-2.29
-2.81
-3.25
-3.78
-4.57
-5.65
-6.93
-8.22
-9.28
-10.05
-10.64
-11.33
-12.46
-14.3
-16.87
-19.83
-22.51
-23.93
-23.07
-19.21
-12.29
-3.11
6.84
15.83
22.5
26.31
27.55
27.07
25.67
23.84
21.63
18.88
15.6
12.04
8.69
5.96
4.01
2.68
1.62
0.51
-0.78
-2.15
-3.34
-4.12
-4.44
-4.48
-4.58
-5.07
-6.15
-7.73
-9.5
-11.05
-12.04
-12.41
-12.35
-12.26
-12.58
-13.65
-15.55
-18.12
-20.9
-23.23
-24.3
-23.3
-19.66
-13.28
-4.71
4.88
14.04
21.4
26.16
28.2
28.07
26.61
24.65
22.63
20.66
18.65
16.5
14.31
12.33
10.84
9.97
9.65
9.57
9.38
8.85
7.93
6.78
5.62
4.64
3.86
3.2
2.52
1.7
0.76
-0.24
-1.2
-2.07
-2.9
-3.83
-5.02
-6.59
-8.57
-10.85
-13.24
-15.44
-17.15
-18.06
-17.82
-16.2
-13.11
-8.75
-3.6
1.61
6.13
9.4
11.18
11.63
11.16
10.22
9.11
7.94
6.73
5.53
4.48
3.75
3.45
3.51
3.69
3.75
3.53
3.11
2.66
2.33
2.11
1.76
0.98
-0.39
-2.24
-4.21
-5.88
-6.98
-7.51
-7.8
-8.28
-9.31
-11.03
-13.25
-15.56
-17.39
-18.08
-17.07
-13.98
-8.8
-1.97
5.62
12.81
18.51
21.99
23.09
22.17
19.95
17.15
14.38
11.93
9.88
8.17
6.7
5.37
4.12
2.9
1.71
0.53
-0.58
-1.59
-2.45
-3.2
-3.94
-4.81
-5.94
-7.37
-9.03
-10.76
-12.43
-14
-15.54
-17.25
-19.29
-21.79
-24.69
-27.6
-29.81
-30.28
-28.04
-22.52
-14.01
-3.62
6.96
16.06
22.6
26.34
27.72
27.41
25.92
23.45
20.01
15.76
11.1
6.67
3.06
0.59
-0.77
-1.33
-1.5
-1.61
-1.77
-1.9
-1.82
-1.45
-0.94
-0.64
-1.05
-2.51
-5
-8.09
-11.05
-13.16
-14.03
-13.82
-13.08
-12.59
-12.99
-14.6
-17.33
-20.72
-23.95
-25.91
-25.45
-21.72
-14.55
-4.67
6.37
16.71
24.78
29.83
31.98
31.95
30.59
28.49
25.88
22.84
19.53
16.26
13.49
11.53
10.41
9.87
9.48
8.87
7.82
6.4
4.81
3.34
2.17
1.33
0.7
0.02
-0.95
-2.39
-4.26
-6.34
-8.29
-9.75
-10.52
-10.63
-10.32
-9.97
-9.99
-10.66
-12.07
-14.03
-16.05
-17.46
-17.54
-15.8
-12.11
-6.85
-0.78
5.18
10.25
13.92
16.03
16.66
16.04
14.43
12.11
9.43
6.78
4.51
2.92
2.15
2.11
2.59
3.27
3.84
4.12
4.08
3.8
3.42
3.08
2.83
2.63
2.37
1.91
1.16
0.08
-1.25
-2.66
-3.93
-4.89
-5.45
-5.69
-5.82
-6.08
-6.71
-7.8
-9.24
-10.76
-11.92
-12.2
-11.19
-8.64
-4.61
0.51
6.1
11.38
15.65
18.39
19.42
18.85
17.02
14.31
11.06
7.52
3.92
0.51
-2.43
-4.65
-6.04
-6.72
-6.9
-6.82
-6.57
-6.1
-5.32
-4.24
-3.06
-2.11
-1.63
-1.8
-2.53
-3.61
-4.77
-5.81
-6.62
-7.22
-7.71
-8.24
-8.86
-9.46
-9.68
-9.05
-7.18
-4
0.16
4.63
8.65
11.61
13.24
13.56
12.83
11.33
9.32
7
4.5
1.93
-0.62
-3.06
-5.27
-7.18
-8.69
-9.72
-10.27
-10.36
-10.08
-9.59
-9.07
-8.71
-8.67
-8.93
-9.36
-9.77
-9.98
-10.01
-10.03
-10.39
-11.42
-13.35
-16.06
-18.98
-21.12
-21.29
-18.53
-12.59
-4.1
5.52
14.64
21.97
26.96
29.72
30.74
30.46
29.12
26.76
23.47
19.44
15.03
10.54
6.14
1.95
-1.92
-5.2
-7.55
-8.68
-8.55
-7.42
-5.8
-4.27
-3.27
-2.95
-3.21
-3.83
-4.61
-5.53
-6.74
-8.46
-10.81
-13.78
-17.23
-20.85
-24.17
-26.42
-26.7
-24.1
-18.17
-9.25
1.45
12.15
21.13
27.28
30.44
31.22
30.49
28.97
26.99
24.59
21.75
18.64
15.56
12.87
10.76
9.23
8.14
7.25
6.44
5.73
5.19
4.91
4.84
4.77
4.44
3.66
2.42
0.93
-0.46
-1.56
-2.38
-3.18
-4.38
-6.3
-9.09
-12.62
-16.48
-20.01
-22.38
-22.71
-20.32
-15.02
-7.33
1.57
10.18
17.1
21.51
23.26
22.8
20.82
17.97
14.64
11.09
7.51
4.2
1.53
-0.2
-0.91
-0.83
-0.46
-0.31
-0.69
-1.59
-2.7
-3.67
-4.38
-4.93
-5.63
-6.68
-8.09
-9.58
-10.84
-11.67
-12.1
-12.39
-12.89
-13.87
-15.48
-17.71
-20.29
-22.67
-23.96
-23.12
-19.34
-12.46
-3.16
7.14
16.74
24.25
28.91
30.75
30.3
28.2
24.96
20.9
16.27
11.49
7.08
3.58
1.28
0.12
-0.26
-0.35
-0.5
-0.86
-1.35
-1.83
-2.25
-2.72
-3.46
-4.7
-6.52
-8.79
-11.21
-13.4
-15.02
-15.97
-16.42
-16.76
-17.52
-19.08
-21.48
-24.31
-26.71
-27.53
-25.75
-20.84
-13.09
-3.52
6.35
15.04
21.58
25.7
27.72
28.24
27.75
26.44
24.33
21.4
17.82
13.99
10.39
7.44
5.26
3.74
2.6
1.58
0.57
-0.35
-1.06
-1.51
-1.87
-2.43
-3.45
-4.99
-6.89
-8.76
-10.25
-11.22
-11.76
-12.16
-12.81
-14.03
-16.07
-18.95
-22.32
-25.35
-26.84
-25.61
-20.95
-13.08
-3.18
6.99
15.82
22.34
26.43
28.57
29.34
29.01
27.53
24.79
20.94
16.58
12.55
9.57
7.92
7.29
7.02
6.43
5.15
3.29
1.21
-0.61
-1.89
-2.66
-3.19
-3.82
-4.81
-6.22
-7.84
-9.37
-10.48
-11.03
-11.11
-11.08
-11.46
-12.69
-15
-18.14
-21.41
-23.82
-24.3
-22.08
-16.98
-9.48
-0.68
8
15.22
20.1
22.37
22.4
20.86
18.52
15.88
13.24
10.64
8.17
5.93
4.12
2.89
2.22
1.9
1.61
1.06
0.16
-0.93
-1.9
-2.45
-2.49
-2.23
-2.03
-2.32
-3.24
-4.71
-6.36
-7.8
-8.82
-9.48
-10.07
-10.98
-12.46
-14.5
-16.74
-18.55
-19.13
-17.77
-14.02
-7.92
-0.1
8.37
16.25
22.45
26.36
27.87
27.39
25.5
22.83
19.82
16.74
13.76
11.02
8.67
6.91
5.86
5.46
5.46
5.45
4.99
3.81
1.91
-0.43
-2.82
-4.89
-6.48
-7.65
-8.62
-9.7
-11.13
-13.09
-15.63
-18.69
-22.07
-25.29
-27.65
-28.27
-26.29
-21.31
-13.56
-4.08
5.58
13.84
19.59
22.58
23.25
22.46
21.02
19.4
17.7
15.9
13.95
11.97
10.1
8.5
7.19
6.12
5.27
4.56
3.94
3.29
2.45
1.23
-0.49
-2.65
-5.04
-7.36
-9.32
-10.81
-11.87
-12.73
-13.71
-15.12
-17.18
-19.93
-23.12
-26.11
-27.87
-27.2
-23.21
-15.71
-5.51
5.77
16.23
24.39
29.63
32.25
32.98
32.56
31.35
29.36
26.58
23.18
19.64
16.48
14.07
12.4
11.12
9.8
8.09
5.98
3.73
1.71
0.22
-0.76
-1.52
-2.57
-4.33
-6.91
-9.97
-12.88
-15.01
-15.98
-15.94
-15.42
-15.15
-15.71
-17.34
-19.91
-22.93
-25.61
-27.02
-26.23
-22.55
-15.85
-6.73
3.5
13.23
20.98
25.9
27.97
27.76
26.12
23.71
20.89
17.74
14.33
10.86
7.73
5.35
3.94
3.42
3.42
3.46
3.13
2.28
1.03
-0.38
-1.67
-2.67
-3.38
-3.95
-4.62
-5.57
-6.88
-8.42
-9.9
-11.06
-11.73
-12
-12.1
-12.36
-13.03
-14.26
-16.01
-18.23
-20.7
-23.09
-24.8
-25.04
-23.02
-18.29
-11.02
-2.06
7.24
15.47
21.59
25.17
26.45
25.99
24.41
22.14
19.38
16.26
13
9.91
7.38
5.65
4.7
4.29
4.02
3.61
2.95
2.15
1.36
0.73
0.25
-0.18
-0.71
-1.45
-2.4
-3.53
-4.72
-5.84
-6.79
-7.55
-8.14
-8.66
-9.22
-9.93
-10.88
-12.13
-13.67
-15.41
-17.11
-18.34
-18.62
-17.49
-14.73
-10.47
-5.17
0.46
5.73
10.07
13.16
14.95
15.53
15.13
13.97
12.31
10.42
8.55
7.01
5.96
5.49
5.48
5.72
5.93
5.92
5.63
5.11
4.47
3.81
3.2
2.66
2.17
1.69
1.14
0.42
-0.56
-1.78
-3.18
-4.58
-5.81
-6.82
-7.65
-8.51
-9.53
-10.8
-12.19
-13.47
-14.35
-14.52
-13.8
-12.1
-9.42
-5.89
-1.79
2.49
6.47
9.67
11.78
12.69
12.53
11.61
10.29
8.9
7.65
6.68
6
5.58
5.26
4.91
4.4
3.66
2.81
2.04
1.56
1.49
1.73
2.05
2.16
1.85
1.04
-0.19
-1.67
-3.18
-4.61
-5.84
-6.85
-7.71
-8.5
-9.37
-10.44
-11.74
-13.15
-14.37
-14.96
-14.46
-12.55
-9.23
-4.85
-0.03
4.51
8.17
10.63
11.89
12.13
11.6
10.54
9.09
7.42
5.68
4.05
2.66
1.58
0.78
0.17
-0.33
-0.74
-1.03
-1.13
-1.01
-0.71
-0.4
-0.27
-0.49
-1.14
-2.15
-3.37
-4.61
-5.78
-6.85
-7.94
-9.19
-10.72
-12.53
-14.48
-16.23
-17.28
-17.07
-15.18
-11.46
-6.23
-0.21
5.65
10.47
13.66
15.12
15.11
14.09
12.49
10.56
8.43
6.24
4.18
2.51
1.41
0.88
0.64
0.38
-0.11
-0.78
-1.38
-1.64
-1.51
-1.28
-1.41
-2.28
-3.93
-6.03
-8
-9.34
-9.86
-9.78
-9.63
-10.01
-11.31
-13.54
-16.31
-18.98
-20.77
-21.01
-19.21
-15.18
-9.11
-1.55
6.56
14.09
20.05
23.76
25.14
24.6
22.85
20.58
18.21
15.9
13.65
11.44
9.35
7.52
6.06
4.97
4.13
3.42
2.75
2.14
1.64
1.26
0.96
0.58
-0.01
-0.99
-2.39
-4.1
-5.89
-7.53
-8.88
-10.01
-11.18
-12.68
-14.62
-16.71
-18.24
-18.23
-15.79
-10.52
-2.76
6.42
15.51
23.05
28.02
30.13
29.75
27.65
24.63
21.34
18.11
15.09
12.37
10.03
8.15
6.72
5.62
4.66
3.71
2.7
1.7
0.85
0.18
-0.38
-1.02
-1.93
-3.21
-4.82
-6.61
-8.37
-9.96
-11.36
-12.68
-14.09
-15.77
-17.82
-20.14
-22.4
-23.96
-23.96
-21.61
-16.43
-8.65
0.83
10.54
18.93
24.87
27.88
28.19
26.43
23.32
19.45
15.29
11.22
7.64
4.89
3.13
2.24
1.85
1.52
0.93
-0.01
-1.15
-2.24
-2.99
-3.35
-3.45
-3.59
-4.12
-5.26
-7.02
-9.1
-11.09
-12.55
-13.28
-13.4
-13.29
-13.47
-14.29
-15.88
-17.97
-19.97
-21.06
-20.44
-17.55
-12.34
-5.33
2.51
10
16.16
20.4
22.58
22.93
21.8
19.56
16.48
12.87
9.05
5.39
2.26
-0.09
-1.54
-2.21
-2.31
-2.21
-2.2
-2.47
-3
-3.61
-4.05
-4.13
-3.86
-3.43
-3.18
-3.36
-4.06
-5.15
-6.33
-7.31
-7.9
-8.17
-8.28
-8.49
-8.99
-9.89
-11.21
-12.83
-14.49
-15.73
-16.04
-14.89
-12.04
-7.62
-2.17
3.51
8.7
12.85
15.75
17.41
17.97
17.62
16.56
14.99
13.18
11.36
9.73
8.31
7.07
5.92
4.78
3.68
2.65
1.76
0.98
0.2
-0.73
-2
-3.72
-5.85
-8.21
-10.51
-12.44
-13.79
-14.56
-14.9
-15.14
-15.68
-16.88
-18.94
-21.66
-24.4
-26.05
-25.35
-21.34
-13.8
-3.54
7.83
18.35
26.39
31.09
32.53
31.37
28.54
24.77
20.58
16.3
12.25
8.73
5.93
3.86
2.29
0.93
-0.4
-1.66
-2.66
-3.23
-3.4
-3.5
-3.92
-4.98
-6.71
-8.87
-11
-12.69
-13.7
-14.01
-13.86
-13.63
-13.77
-14.67
-16.54
-19.2
-21.93
-23.55
-22.67
-18.28
-10.18
0.7
12.58
23.37
31.43
36.12
37.76
37.33
35.81
33.78
31.31
28.19
24.31
19.85
15.31
11.24
7.99
5.58
3.79
2.26
0.71
-0.91
-2.48
-3.77
-4.54
-4.76
-4.59
-4.4
-4.61
-5.56
-7.27
-9.47
-11.67
-13.35
-14.24
-14.45
-14.4
-14.67
-15.72
-17.71
-20.5
-23.69
-26.68
-28.72
-28.99
-26.68
-21.3
-12.85
-2.07
9.66
20.61
29.24
34.62
36.67
36.04
33.76
30.77
27.69
24.75
21.94
19.21
16.64
14.4
12.67
11.48
10.73
10.14
9.43
8.38
6.96
5.28
3.55
1.97
0.62
-0.59
-1.81
-3.2
-4.76
-6.36
-7.79
-8.99
-10.04
-11.15
-12.47
-13.94
-15.3
-16.25
-16.66
-16.72
-16.84
-17.42
-18.61
-20.09
-21.14
-20.8
-18.24
-13.04
-5.44
3.68
12.97
21
26.72
29.66
29.97
28.21
25.03
21.02
16.66
12.42
8.73
5.99
4.37
3.74
3.72
3.82
3.67
3.12
2.25
1.26
0.35
-0.36
-0.9
-1.36
-1.87
-2.54
-3.5
-4.76
-6.29
-7.98
-9.68
-11.22
-12.47
-13.4
-14.09
-14.75
-15.6
-16.76
-18.19
-19.66
-20.91
-21.73
-22.07
-22.08
-22.03
-22.23
-22.98
-24.45
-26.59
-29.02
-30.97
-31.41
-29.26
-23.87
-15.35
-4.82
5.82
14.41
19.22
19.73
16.97
13.23
11.17
12.66
17.98
25.64
33.02
37.01
34.85
24.41
4.67
-23.85
-58.52
-94.48
-125.53
-145.8
-151.83
-143.88
-125.72
-102.97
-80.87
-62.54
-48.39
-36.84
-25.49
-12.32
3.58
21.78
40.66
57.93
71.33
79.37
81.78
79.42
73.8
66.5
58.64
50.86
43.58
37.07
31.61
27.5
25.11
24.98
27.76
33.95
43.35
54.81
66.26
75.39
80.47
80.9
77.32
71.1
63.61
55.72
47.78
39.93
32.42
25.72
20.3
16.28
13.37
10.89
8.16
4.77
0.83
-3.19
-6.65
-9.09
-10.39
-10.82
-10.89
-11.08
-11.68
-12.66
-13.8
-14.83
-15.58
-16.09
-16.52
-17.03
-17.72
-18.49
-19.21
-19.72
-20.04
-20.33
-20.89
-21.99
-23.68
-25.63
-27.06
-26.98
-24.42
-18.89
-10.68
-0.89
8.9
17.05
22.43
24.7
24.23
21.87
18.56
15.02
11.69
8.79
6.44
4.73
3.73
3.42
3.69
4.31
5
5.54
5.79
5.72
5.39
4.9
4.31
3.61
2.72
1.5
-0.1
-2.03
-4.04
-5.86
-7.28
-8.34
-9.24
-10.31
-11.79
-13.73
-15.98
-18.25
-20.3
-21.96
-23.12
-23.66
-23.37
-21.96
-19.16
-14.94
-9.59
-3.72
1.94
6.77
10.43
12.96
14.58
15.55
15.97
15.8
14.91
13.33
11.29
9.13
7.25
5.85
4.97
4.43
4
3.46
2.74
1.86
0.96
0.18
-0.36
-0.62
-0.67
-0.61
-0.6
-0.72
-0.95
-1.24
-1.52
-1.75
-1.98
-2.34
-2.94
-3.86
-5.13
-6.67
-8.37
-10.02
-11.43
-12.35
-12.56
-11.89
-10.22
-7.62
-4.33
-0.84
2.34
4.75
6.18
6.69
6.53
6.04
5.42
4.75
4.01
3.21
2.46
1.93
1.78
2.03
2.6
3.27
3.84
4.19
4.3
4.19
3.91
3.49
2.94
2.2
1.27
0.17
-1.02
-2.23
-3.37
-4.41
-5.35
-6.25
-7.14
-8.08
-9.09
-10.17
-11.29
-12.34
-13.14
-13.44
-13
-11.65
-9.33
-6.15
-2.43
1.37
4.77
7.38
9.04
9.84
10
9.79
9.29
8.48
7.3
5.75
4.07
2.55
1.46
0.87
0.62
0.43
0.12
-0.35
-0.75
-0.87
-0.62
-0.16
0.12
-0.15
-1.19
-2.91
-4.94
-6.85
-8.38
-9.5
-10.42
-11.41
-12.66
-14.21
-15.92
-17.6
-18.95
-19.61
-19.15
-17.07
-13.08
-7.25
-0.16
7.21
13.73
18.46
20.95
21.3
20.02
17.83
15.34
12.97
10.87
9.08
7.57
6.25
5.01
3.72
2.21
0.45
-1.46
-3.24
-4.56
-5.23
-5.34
-5.28
-5.55
-6.51
-8.23
-10.4
-12.52
-14.12
-14.95
-15.11
-14.94
-14.9
-15.44
-16.77
-18.71
-20.7
-21.73
-20.67
-16.61
-9.3
0.65
11.77
22.22
30.39
35.31
36.93
35.86
33.02
29.18
24.88
20.41
15.99
11.97
8.65
6.25
4.72
3.72
2.79
1.59
0.04
-1.66
-3.12
-4
-4.22
-3.94
-3.56
-3.54
-4.16
-5.46
-7.19
-8.91
-10.23
-11.01
-11.43
-11.89
-12.84
-14.48
-16.73
-19.21
-21.41
-22.84
-23.09
-21.77
-18.52
-13.12
-5.65
3.29
12.6
20.98
27.28
30.87
31.84
30.79
28.5
25.68
22.73
19.84
17.09
14.6
12.51
10.95
9.87
9.09
8.34
7.41
6.31
5.17
4.17
3.43
2.91
2.46
1.88
1.02
-0.17
-1.67
-3.39
-5.24
-7.09
-8.86
-10.47
-11.93
-13.29
-14.55
-15.62
-16.3
-16.3
-15.37
-13.43
-10.63
-7.3
-3.92
-0.88
1.51
3.1
3.9
4.08
3.81
3.32
2.78
2.3
1.92
1.6
1.3
0.96
0.52
-0.05
-0.73
-1.46
-2.13
-2.63
-2.9
-2.95
-2.9
-2.91
-3.16
-3.73
-4.63
-5.77
-6.99
-8.18
-9.24
-10.13
-10.9
-11.6
-12.37
-13.3
-14.49
-15.86
-17.19
-18.05
-17.9
-16.27
-12.98
-8.3
-2.86
2.51
7.09
10.46
12.57
13.66
14.07
14.07
13.82
13.4
12.85
12.18
11.41
10.54
9.57
8.54
7.52
6.61
5.85
5.19
4.48
3.61
2.53
1.3
0.09
-1.02
-2.03
-3.07
-4.32
-5.86
-7.59
-9.27
-10.65
-11.62
-12.26
-12.87
-13.81
-15.4
-17.71
-20.5
-23.22
-25.1
-25.32
-23.24
-18.66
-11.87
-3.68
4.86
12.75
19.24
24.03
27.1
28.64
28.91
28.17
26.71
24.84
22.88
21.05
19.52
18.25
17.13
16.03
14.87
13.74
12.74
12.02
11.63
11.55
11.65
11.71
11.52
10.9
9.76
8.09
6.03
3.8
1.67
-0.16
-1.59
-2.65
-3.5
-4.28
-5.08
-5.87
-6.58
-7.12
-7.43
-7.49
-7.28
-6.86
-6.31
-5.8
-5.48
-5.5
-5.91
-6.65
-7.63
-8.7
-9.72
-10.53
-11.01
-11.08
-10.75
-10.17
-9.6
-9.3
-9.49
-10.23
-11.43
-12.91
-14.48
-15.97
-17.32
-18.53
-19.55
-20.19
-20.1
-18.81
-15.94
-11.43
-5.67
0.58
6.38
11.03
14.18
15.91
16.51
16.36
15.73
14.77
13.61
12.44
11.45
10.79
10.5
10.44
10.4
10.18
9.7
9.04
8.39
7.91
7.69
7.65
7.63
7.44
6.96
6.16
5.13
4.03
3.01
2.22
1.71
1.41
1.13
0.6
-0.36
-1.73
-3.29
-4.69
-5.57
-5.81
-5.5
-4.91
-4.38
-4.15
-4.35
-4.97
-5.94
-7.14
-8.38
-9.49
-10.26
-10.63
-10.64
-10.53
-10.58
-11.02
-11.85
-12.81
-13.44
-13.17
-11.63
-8.7
-4.68
-0.13
4.35
8.21
11.21
13.3
14.62
15.33
15.54
15.3
14.67
13.71
12.58
11.47
10.55
9.96
9.7
9.71
9.9
10.13
10.37
10.56
10.71
10.81
10.83
10.75
10.58
10.31
9.89
9.29
8.41
7.18
5.62
3.86
2.08
0.43
-1.01
-2.25
-3.32
-4.27
-5.13
-5.9
-6.64
-7.41
-8.28
-9.25
-10.25
-11.13
-11.79
-12.16
-12.28
-12.29
-12.34
-12.59
-13.09
-13.73
-14.24
-14.27
-13.45
-11.61
-8.83
-5.45
-1.98
1.12
3.51
5.1
6
6.41
6.54
6.49
6.31
6.02
5.64
5.23
4.8
4.32
3.72
2.94
2.01
1.09
0.43
0.24
0.56
1.2
1.83
2.11
1.85
1.15
0.26
-0.49
-0.93
-1.1
-1.26
-1.67
-2.44
-3.43
-4.33
-4.83
-4.79
-4.32
-3.7
-3.25
-3.21
-3.67
-4.61
-5.99
-7.64
-9.33
-10.59
-10.93
-9.96
-7.59
-4.2
-0.45
2.93
5.41
6.8
7.24
7.07
6.61
6.1
5.65
5.27
4.91
4.54
4.12
3.6
2.96
2.18
1.27
0.32
-0.55
-1.15
-1.32
-0.99
-0.24
0.69
1.48
1.82
1.52
0.53
-1.03
-2.89
-4.7
-6.1
-6.91
-7.16
-7.15
-7.27
-7.87
-9.01
-10.53
-12.05
-13.15
-13.5
-12.99
-11.58
-9.34
-6.4
-2.98
0.57
3.88
6.61
8.58
9.82
10.47
10.69
10.6
10.21
9.54
8.62
7.61
6.7
6.04
5.68
5.52
5.39
5.13
4.71
4.18
3.7
3.38
3.19
2.98
2.49
1.54
0.08
-1.78
-3.78
-5.64
-7.17
-8.37
-9.35
-10.3
-11.45
-12.91
-14.72
-16.76
-18.85
-20.59
-21.49
-20.96
-18.53
-14.05
-7.79
-0.52
6.71
12.85
17.2
19.58
20.32
20
19.18
18.17
16.97
15.49
13.69
11.7
9.83
8.37
7.45
6.95
6.57
5.98
5.05
3.88
2.77
2.03
1.8
1.97
2.22
2.23
1.77
0.83
-0.45
-1.89
-3.31
-4.64
-5.85
-6.96
-7.99
-9.05
-10.27
-11.8
-13.67
-15.71
-17.51
-18.56
-18.28
-16.3
-12.54
-7.23
-0.89
5.77
12.05
17.35
21.28
23.63
24.43
23.81
22.07
19.6
16.83
14.2
11.99
10.38
9.38
8.91
8.82
8.88
8.81
8.31
7.22
5.56
3.63
1.87
0.65
0.07
-0.13
-0.47
-1.46
-3.35
-5.97
-8.85
-11.41
-13.22
-14.18
-14.51
-14.59
-14.84
-15.52
-16.81
-18.67
-20.96
-23.28
-24.94
-25.03
-22.62
-17.17
-8.88
1.2
11.42
20.06
25.89
28.54
28.42
26.42
23.47
20.17
16.81
13.5
10.3
7.42
5.11
3.54
2.73
2.51
2.59
2.69
2.63
2.36
1.93
1.42
0.88
0.28
-0.42
-1.3
-2.41
-3.8
-5.5
-7.49
-9.64
-11.75
-13.52
-14.75
-15.41
-15.7
-15.98
-16.63
-17.92
-19.95
-22.62
-25.67
-28.59
-30.52
-30.36
-27.08
-20.17
-10.02
1.94
13.69
23.33
29.64
32.44
32.39
30.46
27.53
24.1
20.39
16.59
13.03
10.17
8.39
7.81
8.16
8.91
9.4
9.16
8.02
6.19
4.08
2.13
0.67
-0.24
-0.74
-1.14
-1.75
-2.77
-4.3
-6.25
-8.45
-10.61
-12.51
-14.02
-15.12
-15.92
-16.63
-17.5
-18.77
-20.59
-22.9
-25.31
-27.08
-27.18
-24.65
-18.95
-10.34
0.09
10.7
19.78
26.1
29.26
29.63
27.98
25.17
21.75
18.05
14.29
10.76
7.89
6.06
5.44
5.79
6.57
7.13
7.04
6.24
5.01
3.78
2.88
2.33
1.9
1.31
0.36
-0.91
-2.29
-3.54
-4.51
-5.27
-6
-6.92
-8.1
-9.44
-10.69
-11.55
-11.8
-11.37
-10.27
-8.59
-6.41
-3.84
-1.01
1.83
4.36
6.27
7.36
7.62
7.22
6.46
5.6
4.83
4.21
3.7
3.22
2.71
2.13
1.55
1.09
0.87
0.96
1.26
1.55
1.54
1
-0.14
-1.77
-3.67
-5.62
-7.47
-9.17
-10.74
-12.28
-13.9
-15.79
-18.1
-20.87
-23.79
-26.13
-26.78
-24.58
-18.81
-9.65
1.73
13.43
23.42
30.22
33.37
33.34
31.19
28
24.52
21.09
17.8
14.68
11.78
9.14
6.71
4.41
2.13
-0.1
-2.15
-3.86
-5.15
-6.11
-6.94
-7.9
-9.17
-10.82
-12.77
-14.85
-16.85
-18.63
-20.16
-21.52
-22.98
-24.83
-27.26
-30.08
-32.56
-33.44
-31.35
-25.33
-15.42
-2.85
10.27
21.67
29.77
34.18
35.57
35.12
33.85
32.22
30.15
27.44
24.14
20.6
17.36
14.76
12.77
11.11
9.43
7.57
5.69
4.11
3.1
2.67
2.55
2.28
1.39
-0.37
-2.99
-6.11
-9.18
-11.69
-13.36
-14.32
-15.07
-16.33
-18.75
-22.65
-27.79
-33.4
-38.16
-40.53
-39.16
-33.36
-23.49
-10.97
2.06
13.47
21.85
26.84
28.99
29.34
28.73
27.62
26.1
24.15
21.95
19.83
18.16
17.05
16.29
15.52
14.38
12.77
10.89
9.12
7.84
7.24
7.21
7.41
7.39
6.81
5.53
3.76
1.86
0.27
-0.8
-1.45
-1.99
-2.82
-4.13
-5.84
-7.56
-8.87
-9.56
-9.77
-9.89
-10.39
-11.51
-13.19
-15.02
-16.49
-17.29
-17.42
-17.21
-17.18
-17.86
-19.6
-22.46
-26.12
-29.8
-32.34
-32.3
-28.54
-20.61
-9.17
4.09
16.94
27.29
33.94
36.74
36.4
33.96
30.34
26.12
21.65
17.25
13.34
10.37
8.6
7.95
7.98
8.07
7.71
6.7
5.23
3.77
2.79
2.54
2.91
3.53
3.9
3.64
2.66
1.11
-0.67
-2.28
-3.42
-3.99
-4.03
-3.78
-3.49
-3.4
-3.59
-4.01
-4.53
-4.97
-5.25
-5.36
-5.41
-5.5
-5.72
-6.13
-6.74
-7.58
-8.69
-10.01
-11.37
-12.37
-12.54
-11.51
-9.19
-5.86
-2.08
1.53
4.52
6.73
8.18
9.02
9.29
8.99
8.11
6.77
5.22
3.8
2.77
2.21
2.03
2.09
2.2
2.28
2.28
2.12
1.76
1.16
0.37
-0.51
-1.34
-2.02
-2.58
-3.19
-4.07
-5.42
-7.3
-9.55
-11.89
-13.96
-15.54
-16.55
-17.17
-17.71
-18.55
-20.01
-22.18
-24.89
-27.52
-29.17
-28.75
-25.33
-18.57
-8.94
2.28
13.34
22.6
28.99
32.3
32.99
31.83
29.52
26.48
22.95
19.14
15.41
12.19
9.85
8.57
8.17
8.26
8.29
7.81
6.55
4.53
2.11
-0.23
-1.99
-2.92
-3.1
-3
-3.19
-4.08
-5.76
-7.9
-10.03
-11.78
-13.05
-14.02
-14.95
-16.07
-17.47
-19.17
-21.26
-23.9
-27.02
-30.09
-31.95
-31.13
-26.43
-17.64
-5.78
7.15
18.91
27.87
33.5
36.24
37.06
36.8
35.82
34.02
31.27
27.62
23.52
19.6
16.41
14.12
12.54
11.22
9.75
7.93
5.86
3.82
2.05
0.63
-0.55
-1.66
-2.82
-4
-5.1
-6.02
-6.81
-7.63
-8.68
-10.06
-11.66
-13.2
-14.37
-15.04
-15.33
-15.61
-16.32
-17.74
-19.98
-22.93
-26.25
-29.33
-31.18
-30.62
-26.6
-18.67
-7.43
5.45
17.79
27.61
33.78
36.34
36.1
34.14
31.27
27.87
24.09
20.1
16.21
12.82
10.24
8.5
7.4
6.62
5.86
4.93
3.83
2.66
1.64
0.95
0.63
0.56
0.43
-0.15
-1.38
-3.19
-5.24
-7.1
-8.48
-9.41
-10.14
-11
-12.14
-13.47
-14.68
-15.52
-15.87
-15.89
-15.91
-16.32
-17.36
-18.98
-20.78
-22.09
-22.15
-20.34
-16.38
-10.51
-3.34
4.25
11.45
17.6
22.37
25.61
27.37
27.78
26.99
25.26
22.87
20.18
17.54
15.25
13.48
12.24
11.46
11.02
10.81
10.75
10.73
10.63
10.33
9.77
9.01
8.17
7.35
6.53
5.59
4.35
2.81
1.16
-0.29
-1.25
-1.73
-2.02
-2.61
-3.92
-6.1
-8.95
-11.93
-14.46
-16.06
-16.47
-15.73
-14.09
-11.89
-9.45
-6.97
-4.57
-2.32
-0.3
1.38
2.56
3.17
3.23
2.83
2.16
1.38
0.62
-0.02
-0.54
-1.01
-1.51
-2.11
-2.83
-3.57
-4.17
-4.51
-4.53
-4.4
-4.36
-4.67
-5.47
-6.77
-8.4
-10.14
-11.73
-13
-13.89
-14.51
-15.1
-15.97
-17.4
-19.44
-21.92
-24.33
-26.02
-26.25
-24.47
-20.4
-14.15
-6.23
2.59
11.36
19.15
25.24
29.27
31.22
31.37
30.16
28.01
25.27
22.18
18.98
15.86
13.03
10.64
8.74
7.26
6.03
4.91
3.81
2.71
1.66
0.75
-0.04
-0.75
-1.53
-2.53
-3.87
-5.53
-7.39
-9.23
-10.87
-12.25
-13.45
-14.65
-16.1
-17.96
-20.26
-22.84
-25.35
-27.13
-27.45
-25.48
-20.76
-13.32
-3.88
6.29
15.71
23.14
27.88
29.89
29.64
27.81
25.01
21.69
18.14
14.62
11.37
8.65
6.61
5.24
4.36
3.66
2.89
1.91
0.76
-0.38
-1.33
-1.96
-2.31
-2.5
-2.79
-3.39
-4.48
-6.07
-8.04
-10.12
-11.99
-13.4
-14.29
-14.81
-15.3
-16.12
-17.54
-19.6
-22.03
-24.29
-25.57
-25.02
-21.93
-16.01
-7.6
2.29
12.28
20.95
27.28
30.84
31.82
30.72
28.13
24.58
20.5
16.36
12.6
9.7
7.9
7.19
7.22
7.49
7.49
6.88
5.61
3.86
1.94
0.16
-1.3
-2.47
-3.55
-4.78
-6.39
-8.4
-10.63
-12.77
-14.55
-15.87
-16.84
-17.8
-19.11
-21.06
-23.74
-26.91
-29.99
-32.06
-32.02
-28.87
-22.17
-12.29
-0.54
11.27
21.36
28.62
32.78
34.35
34.07
32.53
29.98
26.56
22.53
18.41
14.85
12.32
10.83
9.91
8.91
7.27
4.83
1.89
-1
-3.28
-4.64
-5.12
-5.14
-5.32
-6.2
-8.08
-10.82
-13.88
-16.53
-18.16
-18.54
-17.96
-17.12
-16.83
-17.68
-19.82
-22.82
-25.78
-27.48
-26.71
-22.67
-15.29
-5.33
5.71
16.1
24.38
29.8
32.46
33.01
32.29
30.92
29.15
26.94
24.24
21.16
18.01
15.17
12.89
11.16
9.72
8.24
6.43
4.25
1.96
-0.06
-1.51
-2.35
-2.94
-3.87
-5.63
-8.4
-11.86
-15.34
-18.13
-19.81
-20.4
-20.28
-20.04
-20.15
-20.95
-22.55
-24.91
-27.8
-30.65
-32.53
-32.3
-28.96
-22.11
-12.31
-0.98
10.07
19.21
25.55
29.06
30.32
30.06
28.81
26.8
24.11
20.97
17.78
15.13
13.48
12.95
13.19
13.54
13.26
11.92
9.54
6.64
4
2.24
1.56
1.59
1.6
0.86
-0.99
-3.77
-6.89
-9.66
-11.66
-12.89
-13.75
-14.82
-16.55
-19.12
-22.39
-25.94
-29.05
-30.88
-30.47
-27.09
-20.52
-11.28
-0.63
9.73
18.2
23.81
26.44
26.71
25.53
23.71
21.72
19.69
17.65
15.7
13.99
12.64
11.59
10.56
9.28
7.6
5.65
3.74
2.15
0.93
-0.15
-1.5
-3.51
-6.31
-9.69
-13.22
-16.42
-18.99
-20.89
-22.39
-23.94
-26.09
-29.31
-33.77
-39.15
-44.47
-48.26
-48.94
-45.44
-37.74
-27.03
-15.32
-4.73
3.27
8.31
10.9
12.06
12.6
12.88
12.87
12.44
11.73
11.1
10.99
11.59
12.69
13.82
14.51
14.54
14.06
13.49
13.23
13.5
14.18
14.89
15.17
14.64
13.16
10.8
7.86
4.64
1.41
-1.65
-4.48
-7.03
-9.3
-11.36
-13.42
-15.79
-18.8
-22.52
-26.62
-30.31
-32.61
-32.65
-30.08
-25.08
-18.32
-10.64
-2.86
4.49
11.02
16.58
21.07
24.47
26.83
28.23
28.82
28.77
28.25
27.39
26.33
25.19
24.03
22.89
21.77
20.68
19.62
18.64
17.81
17.22
16.87
16.64
16.31
15.61
14.32
12.36
9.81
6.89
3.83
0.83
-2.06
-4.85
-7.66
-10.63
-13.98
-17.89
-22.46
-27.45
-32.18
-35.52
-36.26
-33.58
-27.5
-18.94
-9.46
-0.63
6.52
11.74
15.37
17.93
19.74
20.83
21.07
20.46
19.27
17.94
16.96
16.56
16.73
17.25
17.78
18.02
17.77
17.07
16.11
15.22
14.69
14.65
14.91
14.99
14.29
12.38
9.2
5.16
0.98
-2.6
-5.14
-6.71
-7.76
-8.99
-10.95
-13.96
-17.98
-22.73
-27.77
-32.44
-35.81
-36.8
-34.38
-28.15
-18.56
-7.01
4.6
14.53
21.77
26.24
28.49
29.2
28.78
27.34
24.88
21.58
17.89
14.4
11.55
9.44
7.84
6.39
4.78
2.93
1.03
-0.61
-1.71
-2.17
-2.17
-2.18
-2.75
-4.28
-6.77
-9.79
-12.67
-14.82
-16.02
-16.51
-16.85
-17.68
-19.44
-22.28
-26.14
-30.61
-34.96
-38.04
-38.55
-35.43
-28.41
-18.26
-6.68
4.35
13.23
19.3
22.82
24.58
25.37
25.59
25.24
24.15
22.29
19.95
17.58
15.61
14.24
13.39
12.78
12.02
10.88
9.29
7.41
5.5
3.82
2.48
1.38
0.23
-1.29
-3.4
-6.05
-8.95
-11.67
-13.84
-15.39
-16.52
-17.63
-19.1
-21.15
-23.82
-27.05
-30.81
-34.88
-38.8
-41.67
-42.3
-39.63
-33.2
-23.53
-12.06
-0.68
9.01
16.12
20.67
23.27
24.65
25.27
25.22
24.47
23.07
21.32
19.67
18.5
17.94
17.81
17.76
17.41
16.59
15.38
13.98
12.63
11.56
10.87
10.53
10.4
10.12
9.29
7.63
5.1
2
-1.17
-3.91
-6.05
-7.7
-9.24
-11.05
-13.37
-16.24
-19.54
-23
-26.11
-28.1
-28.01
-25.05
-18.99
-10.41
-0.64
8.73
16.39
21.71
24.7
25.81
25.53
24.23
22.15
19.54
16.8
14.34
12.48
11.28
10.52
9.76
8.64
7
4.93
2.79
0.96
-0.29
-0.95
-1.29
-1.73
-2.7
-4.4
-6.79
-9.54
-12.22
-14.44
-15.98
-16.9
-17.49
-18.29
-19.8
-22.4
-26.1
-30.41
-34.32
-36.5
-35.66
-31.04
-22.82
-12.16
-0.85
9.27
16.97
21.89
24.46
25.39
25.35
24.7
23.56
22.04
20.37
18.83
17.65
16.9
16.38
15.85
15
13.64
11.73
9.4
6.93
4.68
3.02
2.06
1.71
1.6
1.28
0.39
-1.26
-3.59
-6.31
-9.03
-11.36
-13.07
-14.17
-14.93
-15.79
-17.16
-19.26
-21.95
-24.77
-27.01
-27.78
-26.29
-22
-14.91
-5.73
4.18
13.21
19.98
23.82
24.94
24.1
22.24
20.02
17.73
15.34
12.82
10.22
7.71
5.43
3.48
1.88
0.67
-0.05
-0.21
0.27
1.43
3.22
5.56
8.29
11.14
13.78
15.94
17.45
18.33
18.64
18.37
17.37
15.44
12.43
8.4
3.69
-1.22
-5.85
-9.93
-13.45
-16.61
-19.73
-23.13
-26.97
-31.18
-35.42
-39.02
-41.14
-40.93
-37.75
-31.55
-22.92
-13.1
-3.67
3.94
8.85
11.02
11.14
10.26
9.32
8.83
8.83
9.14
9.6
10.34
11.63
13.71
16.63
20.1
23.59
26.51
28.36
28.9
28.15
26.34
23.82
20.84
17.53
13.87
9.8
5.36
0.83
-3.33
-6.68
-8.98
-10.38
-11.36
-12.51
-14.27
-16.74
-19.6
-22.37
-24.57
-25.97
-26.69
-27.15
-27.88
-29.28
-31.5
-34.32
-37.13
-39.11
-39.28
-36.73
-30.86
-21.64
-9.78
3.27
15.62
25.49
31.66
33.91
32.88
29.81
25.97
22.25
19.05
16.38
14.15
12.3
10.94
10.15
9.87
9.85
9.73
9.12
7.83
5.92
3.66
1.41
-0.57
-2.19
-3.59
-5.02
-6.82
-9.2
-12.18
-15.58
-19.06
-22.23
-24.84
-26.85
-28.45
-30
-31.87
-34.31
-37.38
-40.99
-44.92
-48.8
-51.98
-53.35
-51.56
-45.37
-34.23
-18.75
-0.64
17.75
34.27
47.59
57.31
63.66
67
67.53
65.34
60.74
54.5
47.74
41.56
36.63
32.97
30.1
27.44
24.57
21.42
18.21
15.15
12.43
10.02
7.78
5.58
3.28
0.83
-1.73
-4.31
-6.83
-9.23
-11.53
-13.75
-15.91
-18
-19.96
-21.77
-23.43
-24.99
-26.46
-27.83
-29.05
-30.1
-31.06
-32
-32.89
-33.35
-32.72
-30.14
-24.99
-17.21
-7.46
2.98
12.67
20.4
25.52
27.99
28.25
26.96
24.77
22.18
19.54
17.06
14.91
13.17
11.86
10.85
9.93
8.91
7.7
6.41
5.27
4.5
4.2
4.23
4.29
4.06
3.26
1.8
-0.21
-2.54
-4.9
-7
-8.68
-9.97
-11.05
-12.18
-13.52
-15.03
-16.47
-17.5
-17.76
-16.99
-14.98
-11.69
-7.23
-1.98
3.5
8.53
12.57
15.34
16.87
17.35
17.03
16.07
14.64
12.92
11.2
9.78
8.79
8.19
7.73
7.14
6.21
4.94
3.5
2.16
1.2
0.82
1.1
1.98
3.32
4.97
6.83
8.91
11.17
13.51
15.67
17.31
17.98
17.36
15.25
11.68
6.9
1.4
-4.16
-9.1
-12.91
-15.4
-16.66
-17
-16.72
-15.95
-14.75
-13.15
-11.3
-9.46
-7.9
-6.81
-6.21
-5.98
-5.96
-6.01
-5.98
-5.74
-5.14
-4.06
-2.47
-0.51
1.55
3.36
4.6
5.1
4.91
4.26
3.47
2.83
2.48
2.3
2.04
1.42
0.27
-1.33
-3.16
-4.94
-6.51
-7.86
-9.21
-10.82
-12.87
-15.36
-18.04
-20.46
-22.14
-22.65
-21.79
-19.62
-16.39
-12.47
-8.2
-3.91
0.18
3.89
7.13
9.92
12.4
14.71
16.86
18.67
19.81
20
19.15
17.49
15.46
13.47
11.78
10.37
9.1
7.82
6.52
5.33
4.41
3.83
3.47
3.16
2.66
1.86
0.81
-0.32
-1.26
-1.86
-2.12
-2.23
-2.45
-3.01
-3.92
-5.04
-6.15
-7.06
-7.73
-8.28
-8.86
-9.57
-10.42
-11.27
-11.94
-12.24
-12
-11.15
-9.74
-7.93
-5.95
-4.02
-2.33
-0.96
0.06
0.78
1.21
1.42
1.42
1.27
0.99
0.65
0.29
-0.04
-0.26
-0.36
-0.35
-0.29
-0.28
-0.36
-0.51
-0.62
-0.58
-0.32
0.11
0.53
0.74
0.58
0.02
-0.79
-1.64
-2.3
-2.65
-2.76
-2.8
-2.99
-3.45
-4.17
-5.02
-5.81
-6.44
-6.91
-7.3
-7.66
-7.93
-7.92
-7.4
-6.18
-4.28
-1.91
0.62
3
5.03
6.68
7.94
8.82
9.28
9.24
8.68
7.73
6.56
5.38
4.36
3.58
3.07
2.83
2.87
3.14
3.57
4.01
4.3
4.29
3.94
3.28
2.4
1.41
0.36
-0.71
-1.76
-2.74
-3.5
-4
-4.24
-4.38
-4.69
-5.4
-6.54
-7.91
-9.09
-9.62
-9.23
-7.84
-5.63
-2.87
0.2
3.32
6.28
8.84
10.77
11.89
12.19
11.83
11.05
10.17
9.42
8.97
8.84
8.93
9.06
9.03
8.71
8.08
7.24
6.31
5.4
4.55
3.77
3.03
2.35
1.73
1.15
0.58
-0.02
-0.63
-1.26
-1.83
-2.37
-2.91
-3.55
-4.3
-5.09
-5.79
-6.28
-6.58
-6.83
-7.28
-8.17
-9.54
-11.22
-12.75
-13.56
-13.16
-11.4
-8.51
-5.03
-1.6
1.34
3.66
5.44
6.83
7.89
8.54
8.7
8.36
7.7
6.97
6.38
6.02
5.83
5.68
5.45
5.08
4.61
4.11
3.64
3.27
3.06
2.97
2.98
2.96
2.77
2.3
1.47
0.3
-1.1
-2.55
-3.82
-4.73
-5.21
-5.32
-5.27
-5.32
-5.7
-6.55
-7.81
-9.25
-10.51
-11.24
-11.13
-10.08
-8.19
-5.7
-2.98
-0.35
1.96
3.8
5.16
6.04
6.48
6.5
6.16
5.51
4.7
3.88
3.16
2.62
2.22
1.87
1.47
1.01
0.58
0.32
0.32
0.58
0.96
1.24
1.29
1.13
0.89
0.76
0.84
1.13
1.48
1.74
1.8
1.63
1.25
0.7
0.03
-0.65
-1.27
-1.74
-2.01
-2.11
-2.1
-2.08
-2.11
-2.23
-2.44
-2.78
-3.29
-4
-4.95
-6.07
-7.25
-8.32
-9.07
-9.3
-8.86
-7.72
-5.95
-3.76
-1.45
0.72
2.48
3.72
4.43
4.67
4.54
4.16
3.59
2.91
2.17
1.44
0.79
0.31
0.07
0.08
0.32
0.67
1.05
1.36
1.53
1.53
1.35
1
0.54
0.04
-0.4
-0.74
-0.97
-1.14
-1.35
-1.69
-2.17
-2.75
-3.32
-3.8
-4.17
-4.5
-4.93
-5.56
-6.44
-7.48
-8.47
-9.15
-9.27
-8.67
-7.34
-5.39
-3.09
-0.72
1.49
3.4
4.92
6.02
6.67
6.86
6.63
6.09
5.43
4.8
4.27
3.82
3.37
2.89
2.44
2.08
1.9
1.86
1.9
1.94
1.94
1.9
1.78
1.5
0.92
-0.04
-1.32
-2.73
-4.01
-4.93
-5.42
-5.54
-5.46
-5.41
-5.59
-6.1
-6.91
-7.85
-8.61
-8.88
-8.45
-7.27
-5.42
-3.09
-0.48
2.24
4.89
7.26
9.13
10.34
10.83
10.65
10
9.09
8.15
7.35
6.79
6.53
6.59
6.85
7.19
7.44
7.49
7.3
6.93
6.48
6.05
5.69
5.34
4.85
4.11
3.03
1.68
0.23
-1.13
-2.24
-3.07
-3.69
-4.23
-4.78
-5.36
-5.95
-6.52
-7.13
-7.79
-8.51
-9.11
-9.32
-8.86
-7.59
-5.6
-3.21
-0.82
1.23
2.8
3.89
4.6
5
5.1
4.88
4.4
3.76
3.17
2.76
2.6
2.61
2.69
2.77
2.81
2.88
3.03
3.25
3.48
3.61
3.57
3.36
3.03
2.64
2.26
1.89
1.49
1.01
0.41
-0.31
-1.07
-1.76
-2.32
-2.69
-2.91
-3.1
-3.37
-3.83
-4.54
-5.47
-6.53
-7.58
-8.47
-9.07
-9.23
-8.85
-7.81
-6.07
-3.65
-0.75
2.28
5.07
7.25
8.63
9.2
9.16
8.79
8.33
7.96
7.71
7.51
7.25
6.82
6.19
5.43
4.67
4.08
3.79
3.81
4.03
4.3
4.43
4.3
3.86
3.13
2.19
1.07
-0.16
-1.46
-2.77
-3.99
-5.03
-5.79
-6.26
-6.49
-6.65
-6.92
-7.47
-8.37
-9.53
-10.8
-11.97
-12.92
-13.54
-13.79
-13.57
-12.79
-11.39
-9.38
-6.94
-4.37
-2
-0.1
1.22
2.04
2.56
2.98
3.43
3.89
4.25
4.42
4.35
4.11
3.84
3.65
3.59
3.59
3.56
3.39
3.07
2.69
2.38
2.29
2.46
2.84
3.28
3.61
3.71
3.56
3.21
2.74
2.21
1.6
0.86
0
-0.95
-1.92
-2.79
-3.51
-4.09
-4.54
-4.95
-5.37
-5.85
-6.39
-6.92
-7.28
-7.29
-6.81
-5.83
-4.45
-2.82
-1.11
0.62
2.34
4.04
5.64
6.97
7.85
8.19
8.04
7.54
6.86
6.11
5.37
4.67
4.11
3.8
3.82
4.15
4.64
5.05
5.17
4.89
4.24
3.4
2.53
1.79
1.2
0.76
0.39
0.04
-0.34
-0.8
-1.4
-2.16
-3.07
-4.06
-5.04
-5.9
-6.63
-7.31
-8.02
-8.77
-9.43
-9.74
-9.39
-8.16
-6.11
-3.47
-0.65
1.94
4.06
5.63
6.74
7.48
7.95
8.1
7.84
7.15
6.08
4.84
3.66
2.72
2.08
1.72
1.53
1.43
1.42
1.54
1.82
2.27
2.79
3.23
3.39
3.12
2.38
1.22
-0.19
-1.61
-2.85
-3.82
-4.54
-5.11
-5.63
-6.16
-6.71
-7.3
-7.97
-8.75
-9.61
-10.32
-10.58
-10.01
-8.41
-5.83
-2.59
0.85
4.03
6.64
8.57
9.84
10.54
10.77
10.66
10.33
9.93
9.56
9.24
8.86
8.29
7.4
6.21
4.87
3.64
2.75
2.33
2.3
2.49
2.66
2.63
2.34
1.85
1.25
0.6
-0.08
-0.81
-1.6
-2.46
-3.34
-4.17
-4.93
-5.59
-6.15
-6.62
-6.99
-7.26
-7.5
-7.75
-8.08
-8.46
-8.75
-8.81
-8.53
-7.96
-7.3
-6.82
-6.69
-6.91
-7.3
-7.61
-7.63
-7.25
-6.48
-5.33
-3.84
-2.04
-0.01
2.13
4.17
5.91
7.23
8.12
8.64
8.92
9.03
9.01
8.82
8.45
7.9
7.3
6.83
6.65
6.79
7.13
7.47
7.61
7.48
7.17
6.8
6.46
6.12
5.71
5.17
4.58
4.08
3.83
3.85
3.96
3.93
3.53
2.73
1.68
0.63
-0.2
-0.77
-1.21
-1.7
-2.38
-3.21
-3.98
-4.47
-4.58
-4.38
-4.17
-4.28
-4.91
-6.06
-7.49
-8.84
-9.74
-9.88
-9.18
-7.79
-5.98
-4.13
-2.52
-1.31
-0.47
0.13
0.62
1.06
1.41
1.6
1.57
1.33
0.94
0.45
-0.05
-0.55
-1.03
-1.43
-1.7
-1.77
-1.6
-1.2
-0.58
0.12
0.76
1.16
1.22
0.91
0.35
-0.28
-0.78
-1.02
-1.04
-0.97
-0.98
-1.23
-1.72
-2.33
-2.88
-3.26
-3.43
-3.45
-3.44
-3.46
-3.53
-3.59
-3.6
-3.48
-3.15
-2.53
-1.54
-0.16
1.52
3.29
4.92
6.19
7.01
7.39
7.41
7.17
6.73
6.11
5.32
4.4
3.39
2.4
1.51
0.78
0.22
-0.2
-0.55
-0.86
-1.09
-1.18
-1.08
-0.81
-0.48
-0.21
-0.04
0.01
-0.01
-0.08
-0.24
-0.56
-1.06
-1.69
-2.29
-2.72
-2.93
-3.02
-3.17
-3.54
-4.19
-5.01
-5.78
-6.22
-6.12
-5.38
-4.03
-2.26
-0.34
1.46
2.89
3.74
3.92
3.4
2.27
0.71
-1.04
-2.69
-3.98
-4.74
-4.95
-4.69
-4.15
-3.51
-2.94
-2.52
-2.27
-2.14
-2.05
-1.93
-1.76
-1.6
-1.52
-1.61
-1.86
-2.21
-2.55
-2.81
-2.98
-3.1
-3.24
-3.46
-3.77
-4.2
-4.74
-5.36
-5.98
-6.44
-6.49
-5.94
-4.64
-2.62
-0.1
2.56
4.98
6.9
8.2
8.95
9.34
9.55
9.69
9.73
9.59
9.13
8.32
7.23
6.06
5.09
4.51
4.42
4.7
5.12
5.45
5.53
5.35
5
4.6
4.17
3.63
2.86
1.79
0.47
-1.02
-2.6
-4.24
-5.95
-7.68
-9.22
-10.23
-10.39
-9.49
-7.57
-4.93
-2.03
0.71
3
4.75
6.06
7.05
7.82
8.35
8.55
8.29
7.51
6.32
4.95
3.73
2.91
2.65
2.91
3.46
4.04
4.36
4.2
3.48
2.25
0.66
-1.05
-2.65
-3.93
-4.8
-5.3
-5.59
-5.94
-6.61
-7.78
-9.39
-11.24
-12.96
-14.08
-14.19
-13.04
-10.58
-7.06
-2.91
1.28
4.98
7.84
9.74
10.77
11.11
10.94
10.38
9.52
8.45
7.31
6.19
5.16
4.18
3.19
2.22
1.35
0.77
0.57
0.74
1.07
1.26
1.06
0.4
-0.66
-1.92
-3.19
-4.35
-5.39
-6.35
-7.34
-8.5
-9.93
-11.76
-13.96
-16.4
-18.73
-20.38
-20.74
-19.27
-15.79
-10.6
-4.46
1.67
6.86
10.56
12.68
13.47
13.34
12.67
11.69
10.49
9.16
7.81
6.58
5.57
4.72
3.89
2.91
1.71
0.36
-0.94
-1.96
-2.59
-2.84
-2.86
-2.85
-3
-3.4
-4.04
-4.79
-5.48
-6
-6.35
-6.64
-7.08
-7.89
-9.15
-10.82
-12.68
-14.46
-15.89
-16.7
-16.62
-15.36
-12.74
-8.76
-3.8
1.43
6.1
9.57
11.63
12.52
12.76
12.85
13.01
13.14
12.96
12.23
10.93
9.29
7.66
6.38
5.58
5.18
4.94
4.62
4.03
3.11
1.93
0.56
-0.9
-2.36
-3.75
-4.97
-6.02
-6.93
-7.81
-8.73
-9.69
-10.57
-11.23
-11.66
-11.95
-12.38
-13.21
-14.54
-16.3
-18.27
-20.23
-22
-23.43
-24.23
-23.91
-21.91
-17.79
-11.54
-3.69
4.85
13
19.92
25.19
28.85
31.21
32.66
33.43
33.6
33.12
31.99
30.29
28.24
26.08
24.03
22.27
20.81
19.63
18.58
17.53
16.36
15.03
13.58
12.1
10.7
9.4
8.21
7.07
5.98
4.97
4.05
3.21
2.39
1.51
0.58
-0.33
-1.08
-1.64
-2.07
-2.52
-3.1
-3.83
-4.61
-5.23
-5.53
-5.44
-5.04
-4.5
-4
-3.69
-3.61
-3.74
-3.99
-4.22
-4.39
-4.49
-4.64
-4.94
-5.43
-6.08
-6.79
-7.53
-8.35
-9.39
-10.85
-12.81
-15.23
-17.83
-20.17
-21.72
-22.01
-20.75
-17.91
-13.76
-8.76
-3.44
1.74
6.5
10.69
14.29
17.29
19.71
21.53
22.76
23.49
23.81
23.85
23.77
23.61
23.39
23.06
22.56
21.82
20.83
19.55
17.92
15.86
13.25
10.06
6.46
2.74
-0.68
-3.41
-5.26
-6.19
-6.39
-6.14
-5.75
-5.54
-5.75
-6.51
-7.75
-9.26
-10.74
-11.89
-12.59
-12.89
-13.03
-13.35
-14.13
-15.57
-17.77
-20.6
-23.77
-26.81
-29.22
-30.69
-31.25
-31.3
-31.53
-32.61
-34.88
-38.29
-42.39
-46.59
-50.28
-52.98
-54.28
-53.9
-51.73
-47.93
-42.95
-37.44
-32.05
-27.18
-22.93
-19.17
-15.78
-12.75
-10.13
-7.91
-5.8
-3.18
0.64
6.11
13.2
21.29
29.44
36.7
42.42
46.4
48.83
50.07
50.42
50.06
48.98
47.12
44.44
41
37
32.74
28.56
24.77
21.54
18.93
16.77
14.8
12.75
10.52
8.25
6.28
4.98
4.49
4.58
4.71
4.21
2.57
-0.37
-4.41
-8.99
-13.35
-16.65
-18.06
-16.99
-13.24
-7.2
0.24
7.88
14.64
19.77
23.09
24.75
25.09
24.34
22.64
20.1
16.95
13.58
10.48
8
6.33
5.33
4.75
4.35
4
3.73
3.64
3.7
3.7
3.24
1.87
-0.73
-4.57
-9.35
-14.49
-19.34
-23.37
-26.42
-28.7
-30.81
-33.49
-37.42
-42.87
-49.57
-56.54
-62.19
-64.72
-62.61
-55.24
-43.26
-28.42
-13.13
0.44
10.9
17.95
22.09
24.11
24.58
23.7
21.47
17.99
13.7
9.31
5.61
3.24
2.54
3.5
5.88
9.29
13.22
17.19
20.66
23.17
24.33
23.82
21.53
17.53
12.19
6.13
0.18
-4.85
-8.36
-10.23
-10.83
-10.98
-11.74
-13.98
-18.08
-23.58
-29.29
-33.56
-34.88
-32.42
-26.34
-17.69
-8.01
1.2
8.97
14.94
19.23
22.23
24.31
25.69
26.43
26.54
25.93
24.56
22.4
19.49
15.96
12
7.87
3.9
0.39
-2.43
-4.46
-5.81
-6.82
-7.92
-9.53
-11.86
-14.98
-18.76
-23.04
-27.67
-32.51
-37.47
-42.49
-47.63
-52.9
-58.14
-62.77
-65.81
-66.03
-62.48
-54.82
-43.56
-29.81
-14.9
0.02
14.19
27.13
38.47
47.8
54.77
59.23
61.33
61.5
60.26
58.09
55.28
52.04
48.52
44.89
41.25
37.68
34.21
30.83
27.49
24.17
20.8
17.33
13.65
9.65
5.24
0.39
-4.8
-10.19
-15.69
-21.37
-27.44
-34.09
-41.22
-48.23
-54
-57.1
-56.26
-50.8
-40.89
-27.49
-12.13
3.52
17.95
30.07
39.35
45.76
49.74
51.93
53.06
53.65
53.99
54.13
53.95
53.32
52.09
50.22
47.77
44.95
42.08
39.52
37.57
36.26
35.44
34.77
33.96
32.82
31.29
29.39
27.12
24.4
21.11
17.15
12.45
7
0.94
-5.35
-11.14
-15.35
-16.84
-14.87
-9.46
-1.59
7.11
14.91
20.59
23.71
24.52
23.56
21.33
18.15
14.24
9.93
5.74
2.26
-0.07
-1.21
-1.51
-1.57
-1.99
-3.17
-5.15
-7.62
-10.16
-12.3
-13.79
-14.61
-14.95
-15.09
-15.3
-15.73
-16.44
-17.47
-18.8
-20.39
-22.06
-23.53
-24.37
-24.15
-22.57
-19.55
-15.35
-10.44
-5.43
-0.86
2.87
5.61
7.43
8.45
8.8
8.53
7.7
6.4
4.88
3.44
2.35
1.72
1.41
1.18
0.77
0.03
-1
-2.17
-3.24
-4.04
-4.53
-4.8
-5.08
-5.61
-6.61
-8.15
-10.14
-12.37
-14.52
-16.24
-17.14
-16.83
-15.03
-11.66
-6.98
-1.62
3.59
7.84
10.64
11.89
11.86
11.04
9.87
8.62
7.35
6
4.5
2.91
1.37
0.04
-0.97
-1.68
-2.22
-2.74
-3.32
-3.92
-4.4
-4.68
-4.79
-4.88
-5.23
-6.12
-7.78
-10.25
-13.42
-17
-20.48
-23.25
-24.58
-23.84
-20.62
-14.96
-7.37
1.15
9.34
16.03
20.43
22.34
22.15
20.6
18.45
16.24
14.13
12.06
9.89
7.66
5.57
3.87
2.75
2.11
1.66
0.98
-0.23
-2.02
-4.15
-6.2
-7.8
-8.76
-9.16
-9.35
-9.71
-10.64
-12.36
-14.95
-18.26
-21.92
-25.26
-27.32
-27.03
-23.55
-16.58
-6.75
4.53
15.36
23.93
29.11
30.67
29.21
25.74
21.31
16.66
12.23
8.24
4.83
2.1
0.09
-1.33
-2.41
-3.45
-4.62
-5.91
-7.2
-8.36
-9.4
-10.45
-11.69
-13.2
-14.92
-16.67
-18.22
-19.46
-20.4
-21.2
-22.11
-23.39
-25.19
-27.47
-29.79
-31.37
-31.12
-28.03
-21.57
-12.02
-0.52
11.17
21.21
28.26
31.79
32.11
30.1
26.72
22.78
18.71
14.73
11
7.76
5.24
3.55
2.58
1.91
1.06
-0.38
-2.47
-4.9
-7.19
-8.84
-9.69
-9.91
-10.01
-10.5
-11.72
-13.57
-15.63
-17.42
-18.58
-19.16
-19.52
-20.16
-21.48
-23.66
-26.56
-29.79
-32.73
-34.54
-34.24
-30.9
-24.11
-14.14
-2.21
9.95
20.52
28.23
32.61
33.96
33
30.49
26.96
22.82
18.37
14.04
10.29
7.47
5.66
4.59
3.82
2.91
1.66
0.18
-1.18
-2.14
-2.63
-2.97
-3.63
-5.07
-7.37
-10.25
-13.14
-15.48
-16.97
-17.75
-18.28
-19.18
-21.04
-24.12
-28.25
-32.6
-35.85
-36.41
-32.96
-25.02
-13.28
0.44
13.86
24.95
32.58
36.75
38.26
38.2
37.35
36.01
34.08
31.46
28.26
24.89
21.86
19.51
17.86
16.55
15.15
13.29
10.95
8.43
6.17
4.5
3.5
2.84
1.98
0.31
-2.51
-6.42
-10.92
-15.2
-18.45
-20.25
-20.68
-20.35
-20.1
-20.65
-22.33
-25.03
-28.3
-31.49
-33.85
-34.51
-32.6
-27.44
-18.89
-7.64
4.84
16.67
26.18
32.46
35.55
36.21
35.39
33.81
31.75
29.2
26.13
22.71
19.35
16.5
14.41
13.02
12.1
11.33
10.54
9.72
8.91
8.16
7.36
6.35
4.97
3.22
1.23
-0.73
-2.43
-3.78
-4.82
-5.72
-6.69
-7.86
-9.22
-10.68
-12.15
-13.55
-14.89
-16.29
-17.85
-19.67
-21.72
-23.75
-25.31
-25.79
-24.51
-20.98
-15.12
-7.45
1.07
9.18
15.84
20.45
23.01
24
24.05
23.72
23.21
22.54
21.56
20.22
18.65
17.04
15.64
14.54
13.69
12.94
12.18
11.41
10.73
10.27
10.04
9.91
9.62
8.98
7.94
6.65
5.39
4.39
3.78
3.43
3.13
2.6
1.7
0.39
-1.15
-2.71
-4.12
-5.24
-6.12
-6.85
-7.57
-8.4
-9.39
-10.49
-11.64
-12.71
-13.6
-14.25
-14.63
-14.8
-14.88
-15
-15.27
-15.73
-16.34
-17
-17.63
-18.17
-18.69
-19.29
-20.08
-21.06
-22.04
-22.53
-21.86
-19.38
-14.79
-8.31
-0.85
6.38
12.18
15.87
17.38
17.21
16.06
14.57
13.05
11.59
10.15
8.7
7.32
6.11
5.16
4.46
3.95
3.52
3.05
2.5
1.92
1.44
1.19
1.26
1.56
1.89
2.04
1.87
1.44
0.93
0.52
0.36
0.45
0.73
1.11
1.46
1.71
1.77
1.58
1.13
0.47
-0.32
-1.17
-2.01
-2.86
-3.72
-4.62
-5.56
-6.52
-7.49
-8.46
-9.4
-10.31
-11.17
-12.07
-13.1
-14.31
-15.63
-16.83
-17.53
-17.28
-15.75
-12.83
-8.7
-3.84
1.08
5.44
8.78
10.9
11.87
11.91
11.32
10.33
9.16
7.93
6.73
5.6
4.56
3.62
2.79
2.11
1.63
1.39
1.4
1.63
2.03
2.5
2.95
3.24
3.22
2.81
2.02
0.95
-0.21
-1.27
-2.12
-2.75
-3.24
-3.78
-4.49
-5.49
-6.76
-8.17
-9.5
-10.52
-11.09
-11.24
-11.2
-11.32
-11.94
-13.18
-14.86
-16.43
-17.15
-16.36
-13.73
-9.45
-4.15
1.28
6.04
9.61
11.9
13.06
13.37
13.06
12.27
11.17
9.93
8.78
7.91
7.34
7.02
6.8
6.58
6.34
6.15
6.03
6
6.01
6.01
5.96
5.84
5.6
5.12
4.31
3.14
1.74
0.32
-0.9
-1.8
-2.39
-2.81
-3.24
-3.81
-4.62
-5.7
-7.01
-8.47
-9.91
-11.16
-12.09
-12.69
-13.12
-13.64
-14.44
-15.53
-16.68
-17.46
-17.39
-16.15
-13.69
-10.28
-6.32
-2.27
1.48
4.69
7.21
9.01
10.05
10.33
9.9
8.84
7.37
5.78
4.4
3.5
3.16
3.31
3.71
4.11
4.34
4.36
4.25
4.11
4.02
3.95
3.84
3.61
3.22
2.72
2.19
1.71
1.36
1.13
0.98
0.79
0.47
-0.03
-0.68
-1.34
-1.88
-2.11
-1.97
-1.55
-1.07
-0.87
-1.25
-2.38
-4.16
-6.28
-8.25
-9.64
-10.16
-9.7
-8.31
-6.19
-3.58
-0.81
1.8
4.03
5.8
7.23
8.47
9.6
10.53
11.05
10.98
10.35
9.35
8.33
7.51
6.95
6.53
6.05
5.39
4.6
3.82
3.21
2.84
2.69
2.6
2.42
2.06
1.51
0.85
0.19
-0.38
-0.87
-1.34
-1.86
-2.45
-3.08
-3.72
-4.32
-4.89
-5.44
-6.01
-6.63
-7.36
-8.22
-9.2
-10.11
-10.68
-10.58
-9.61
-7.82
-5.5
-3.06
-0.87
0.9
2.27
3.36
4.28
4.99
5.38
5.32
4.75
3.78
2.66
1.66
1
0.74
0.75
0.82
0.81
0.73
0.77
1.09
1.72
2.44
2.9
2.81
2.09
0.97
-0.22
-1.12
-1.64
-1.86
-2.03
-2.42
-3.22
-4.48
-6.1
-7.85
-9.44
-10.51
-10.77
-10.02
-8.27
-5.64
-2.42
1.04
4.33
7.06
8.93
9.81
9.76
8.98
7.78
6.45
5.26
4.39
3.98
4.08
4.61
5.37
6.05
6.41
6.24
5.56
4.52
3.31
2.09
0.9
-0.3
-1.6
-3.04
-4.58
-6.04
-7.25
-8.1
-8.61
-8.96
-9.36
-9.98
-10.84
-11.83
-12.74
-13.31
-13.3
-12.47
-10.65
-7.8
-4.1
0.09
4.23
7.81
10.51
12.26
13.22
13.56
13.41
12.72
11.47
9.7
7.67
5.75
4.33
3.54
3.27
3.24
3.2
3.06
2.91
2.92
3.13
3.43
3.58
3.32
2.51
1.24
-0.31
-1.9
-3.38
-4.68
-5.81
-6.81
-7.74
-8.68
-9.76
-11.09
-12.71
-14.49
-16.09
-17
-16.66
-14.76
-11.27
-6.61
-1.5
3.3
7.13
9.72
11.09
11.51
11.31
10.76
10
9.12
8.18
7.24
6.43
5.87
5.57
5.46
5.4
5.22
4.84
4.3
3.73
3.31
3.08
2.98
2.82
2.4
1.6
0.44
-0.94
-2.35
-3.62
-4.62
-5.37
-5.95
-6.51
-7.19
-8.13
-9.36
-10.8
-12.28
-13.56
-14.32
-14.26
-13.11
-10.78
-7.4
-3.37
0.67
4.11
6.51
7.77
8.09
7.83
7.38
6.93
6.6
6.36
6.15
5.93
5.65
5.29
4.82
4.22
3.54
2.82
2.15
1.59
1.19
0.95
0.86
0.85
0.83
0.69
0.39
-0.05
-0.6
-1.19
-1.82
-2.49
-3.22
-4
-4.8
-5.67
-6.67
-7.9
-9.34
-10.81
-11.95
-12.32
-11.56
-9.56
-6.52
-2.91
0.72
3.91
6.41
8.19
9.42
10.28
10.87
11.16
11.05
10.47
9.51
8.33
7.19
6.25
5.51
4.85
4.11
3.25
2.35
1.65
1.38
1.62
2.24
2.94
3.37
3.3
2.71
1.76
0.68
-0.32
-1.17
-1.92
-2.67
-3.49
-4.45
-5.6
-6.95
-8.46
-9.98
-11.21
-11.75
-11.22
-9.42
-6.48
-2.82
1
4.41
7.04
8.78
9.76
10.16
10.16
9.81
9.11
8.05
6.74
5.37
4.13
3.21
2.64
2.4
2.4
2.55
2.8
3.09
3.35
3.48
3.42
3.1
2.55
1.8
0.97
0.13
-0.67
-1.44
-2.25
-3.13
-4.11
-5.16
-6.23
-7.28
-8.32
-9.36
-10.37
-11.23
-11.68
-11.42
-10.23
-8.07
-5.18
-1.95
1.15
3.76
5.68
6.93
7.67
8.09
8.25
8.09
7.49
6.38
4.86
3.19
1.72
0.7
0.21
0.21
0.49
0.84
1.08
1.08
0.84
0.45
0.09
-0.01
0.24
0.73
1.2
1.33
0.96
0.15
-0.84
-1.77
-2.52
-3.22
-4.11
-5.33
-6.86
-8.38
-9.48
-9.76
-9.04
-7.33
-4.87
-2
0.95
3.66
5.92
7.57
8.51
8.7
8.15
6.97
5.38
3.68
2.12
0.94
0.18
-0.22
-0.42
-0.62
-0.89
-1.2
-1.44
-1.51
-1.42
-1.32
-1.44
-1.94
-2.84
-3.99
-5.15
-6.09
-6.69
-6.97
-7.05
-7.07
-7.21
-7.61
-8.32
-9.28
-10.27
-10.91
-10.78
-9.56
-7.2
-3.91
-0.1
3.74
7.19
9.93
11.79
12.7
12.71
11.93
10.58
8.86
7.04
5.36
3.99
3.07
2.6
2.49
2.64
2.91
3.22
3.53
3.78
3.86
3.64
3.04
2.08
0.92
-0.26
-1.34
-2.35
-3.42
-4.77
-6.51
-8.63
-10.99
-13.34
-15.39
-16.79
-17.15
-16.15
-13.65
-9.79
-5.05
-0.12
4.31
7.72
9.91
10.99
11.25
10.99
10.47
9.81
9.02
8.11
7.08
6.01
4.98
4.09
3.38
2.82
2.38
1.98
1.58
1.15
0.65
0.03
-0.81
-1.96
-3.47
-5.27
-7.17
-8.95
-10.46
-11.69
-12.86
-14.24
-16.06
-18.29
-20.57
-22.32
-22.88
-21.78
-18.8
-14.15
-8.32
-2.04
3.92
8.92
12.63
15.04
16.41
17.12
17.48
17.64
17.56
17.16
16.41
15.39
14.24
13.12
12.11
11.28
10.62
10.1
9.7
9.33
8.94
8.46
7.81
7
6.03
4.92
3.7
2.39
0.99
-0.47
-1.9
-3.21
-4.33
-5.25
-6.1
-7.08
-8.37
-10.06
-12.01
-13.92
-15.33
-15.79
-14.98
-12.72
-9.09
-4.39
0.87
6.07
10.61
14.04
16.2
17.19
17.26
16.72
15.77
14.53
13.09
11.53
10.01
8.72
7.77
7.19
6.85
6.56
6.16
5.56
4.82
4.06
3.43
3
2.76
2.57
2.31
1.89
1.25
0.44
-0.48
-1.43
-2.35
-3.19
-3.92
-4.56
-5.06
-5.46
-5.77
-6.06
-6.44
-7.03
-7.9
-8.94
-9.94
-10.49
-10.22
-8.9
-6.47
-3.2
0.51
4.22
7.51
10.11
11.86
12.78
12.97
12.62
11.94
11.12
10.26
9.39
8.45
7.39
6.19
4.9
3.69
2.71
2.12
1.92
2.06
2.41
2.86
3.29
3.58
3.6
3.24
2.47
1.34
0.07
-1.1
-1.99
-2.52
-2.78
-3
-3.45
-4.29
-5.57
-7.16
-8.82
-10.26
-11.31
-11.9
-12.13
-12.16
-12.18
-12.29
-12.52
-12.92
-13.49
-14.22
-15.02
-15.67
-15.83
-15.23
-13.72
-11.37
-8.49
-5.45
-2.67
-0.51
0.84
1.33
1.12
0.5
-0.16
-0.61
-0.7
-0.46
-0.04
0.37
0.63
0.63
0.36
-0.14
-0.68
-1
-0.84
-0.08
1.14
2.47
3.52
3.98
3.76
2.99
1.93
0.82
-0.14
-0.84
-1.27
-1.47
-1.53
-1.55
-1.61
-1.73
-1.95
-2.3
-2.81
-3.49
-4.28
-5.1
-5.87
-6.49
-6.92
-7.06
-6.79
-5.98
-4.54
-2.52
-0.11
2.35
4.55
6.27
7.39
7.99
8.19
8.14
7.91
7.53
6.92
5.95
4.56
2.81
0.93
-0.74
-1.84
-2.21
-1.87
-1.09
-0.19
0.49
0.73
0.48
-0.18
-1.05
-1.97
-2.77
-3.4
-3.87
-4.25
-4.63
-5.1
-5.77
-6.76
-8.17
-9.94
-11.84
-13.42
-14.13
-13.5
-11.42
-8.16
-4.3
-0.53
2.63
4.98
6.58
7.72
8.64
9.47
10.24
10.88
11.31
11.5
11.41
11
10.34
9.48
8.57
7.79
7.26
7.01
6.98
6.99
6.89
6.54
5.88
4.92
3.77
2.57
1.52
0.76
0.34
0.12
-0.2
-0.96
-2.39
-4.48
-6.98
-9.39
-11.16
-11.85
-11.24
-9.39
-6.62
-3.39
-0.15
2.72
5.02
6.64
7.58
7.83
7.48
6.65
5.57
4.51
3.73
3.29
3.1
2.97
2.65
2.04
1.2
0.34
-0.33
-0.68
-0.78
-0.83
-1.1
-1.8
-2.94
-4.37
-5.83
-7.03
-7.83
-8.22
-8.41
-8.63
-9.16
-10.12
-11.54
-13.28
-15.11
-16.74
-17.87
-18.24
-17.58
-15.79
-12.88
-9.13
-4.95
-0.83
2.79
5.69
7.84
9.4
10.53
11.34
11.88
12.16
12.2
12.06
11.78
11.35
10.76
9.94
8.9
7.7
6.46
5.33
4.44
3.89
3.66
3.68
3.76
3.68
3.3
2.58
1.64
0.68
-0.16
-0.87
-1.59
-2.5
-3.69
-5.16
-6.73
-8.23
-9.42
-10.16
-10.3
-9.73
-8.4
-6.31
-3.56
-0.37
3.02
6.24
8.96
10.91
11.99
12.23
11.85
11.15
10.34
9.55
8.78
7.98
7.14
6.27
5.43
4.71
4.18
3.89
3.86
4.04
4.3
4.45
4.33
3.82
2.93
1.76
0.4
-1
-2.34
-3.57
-4.68
-5.7
-6.78
-8.06
-9.62
-11.34
-12.93
-13.99
-14.16
-13.22
-11.18
-8.25
-4.78
-1.25
1.92
4.38
5.98
6.76
6.95
6.79
6.47
6.04
5.49
4.78
3.99
3.24
2.62
2.15
1.79
1.5
1.28
1.14
1.06
0.98
0.73
0.19
-0.67
-1.76
-2.9
-3.85
-4.49
-4.84
-5.06
-5.43
-6.27
-7.76
-9.86
-12.24
-14.35
-15.53
-15.3
-13.46
-10.21
-5.99
-1.41
2.98
6.75
9.69
11.76
13.01
13.54
13.5
13.01
12.29
11.53
10.92
10.53
10.27
9.95
9.39
8.52
7.46
6.46
5.74
5.38
5.31
5.31
5.21
4.9
4.3
3.37
2.07
0.39
-1.56
-3.5
-5.14
-6.25
-6.84
-7.16
-7.64
-8.63
-10.29
-12.41
-14.49
-15.91
-16.09
-14.72
-11.82
-7.69
-2.86
2.08
6.62
10.34
12.98
14.47
14.89
14.47
13.55
12.47
11.55
10.98
10.81
10.93
11.15
11.26
11.08
10.55
9.76
8.89
8.16
7.72
7.64
7.82
8.04
8.08
7.75
7.04
6.06
5.03
4.13
3.48
3.06
2.76
2.4
1.88
1.14
0.24
-0.68
-1.46
-2.01
-2.37
-2.63
-2.99
-3.55
-4.32
-5.16
-5.87
-6.29
-6.39
-6.29
-6.22
-6.43
-7.08
-8.21
-9.7
-11.33
-12.83
-13.96
-14.63
-14.91
-15.06
-15.41
-16.21
-17.64
-19.73
-22.24
-24.77
-26.72
-27.46
-26.54
-23.86
-19.75
-14.81
-9.7
-4.91
-0.7
2.85
5.7
7.82
9.17
9.83
10
10.02
10.16
10.58
11.23
11.96
12.5
12.7
12.56
12.25
12
12.02
12.37
12.91
13.37
13.5
13.17
12.4
11.35
10.12
8.82
7.49
6.17
4.94
3.89
3.05
2.41
1.88
1.42
1
0.65
0.36
0.04
-0.44
-1.18
-2.22
-3.49
-4.81
-5.99
-6.89
-7.48
-7.84
-8.17
-8.71
-9.64
-11.01
-12.7
-14.42
-15.76
-16.3
-15.69
-13.86
-10.91
-7.19
-3.19
0.63
3.9
6.46
8.37
9.75
10.76
11.47
11.87
11.91
11.55
10.83
9.82
8.7
7.61
6.7
6.03
5.58
5.25
4.96
4.71
4.59
4.7
5.08
5.58
5.89
5.73
4.99
3.83
2.6
1.62
1.02
0.67
0.28
-0.42
-1.5
-2.8
-4.08
-5.14
-5.95
-6.62
-7.29
-8
-8.71
-9.32
-9.79
-10.28
-11.02
-12.23
-13.9
-15.72
-17.08
-17.37
-16.17
-13.45
-9.62
-5.36
-1.38
1.83
4.07
5.45
6.2
6.6
6.8
6.9
6.92
6.89
6.81
6.67
6.44
6.03
5.41
4.65
3.89
3.34
3.14
3.33
3.78
4.33
4.79
5.05
5.09
4.95
4.64
4.16
3.46
2.53
1.45
0.37
-0.57
-1.27
-1.73
-2.07
-2.46
-3
-3.77
-4.73
-5.83
-7.04
-8.38
-9.82
-11.24
-12.44
-13.07
-12.87
-11.74
-9.85
-7.54
-5.18
-3.07
-1.28
0.26
1.7
3.14
4.53
5.72
6.51
6.75
6.42
5.6
4.49
3.32
2.3
1.6
1.31
1.48
2.07
2.97
4
4.98
5.72
6.05
5.89
5.24
4.19
2.89
1.51
0.22
-0.83
-1.53
-1.94
-2.21
-2.56
-3.24
-4.35
-5.8
-7.36
-8.67
-9.4
-9.33
-8.43
-6.84
-4.8
-2.53
-0.2
2.13
4.39
6.48
8.22
9.43
9.92
9.67
8.82
7.63
6.43
5.46
4.85
4.58
4.54
4.58
4.6
4.54
4.44
4.4
4.51
4.81
5.25
5.65
5.77
5.41
4.46
2.98
1.15
-0.71
-2.32
-3.51
-4.25
-4.76
-5.35
-6.33
-7.86
-9.86
-12.04
-13.94
-15.08
-15.14
-14.01
-11.79
-8.79
-5.43
-2.11
0.81
3.12
4.8
5.95
6.76
7.39
7.91
8.33
8.61
8.69
8.57
8.27
7.81
7.2
6.44
5.52
4.48
3.46
2.61
2.06
1.85
1.84
1.82
1.53
0.82
-0.28
-1.58
-2.8
-3.75
-4.36
-4.8
-5.31
-6.09
-7.26
-8.77
-10.5
-12.24
-13.78
-14.86
-15.27
-14.81
-13.4
-11.13
-8.22
-5.03
-1.89
0.95
3.4
5.49
7.25
8.69
9.72
10.22
10.12
9.5
8.58
7.66
7.01
6.76
6.87
7.14
7.33
7.25
6.83
6.13
5.34
4.63
4.11
3.76
3.47
3.05
2.39
1.46
0.41
-0.58
-1.39
-2.01
-2.52
-3.03
-3.66
-4.48
-5.55
-6.91
-8.55
-10.31
-11.9
-12.88
-12.84
-11.58
-9.21
-6.12
-2.82
0.19
2.64
4.45
5.73
6.59
7.12
7.3
7.12
6.56
5.65
4.47
3.15
1.8
0.52
-0.6
-1.48
-2.05
-2.27
-2.16
-1.81
-1.34
-0.86
-0.46
-0.18
-0.07
-0.19
-0.59
-1.27
-2.18
-3.23
-4.26
-5.2
-6.03
-6.81
-7.67
-8.66
-9.83
-11.12
-12.43
-13.63
-14.54
-14.94
-14.67
-13.65
-11.89
-9.53
-6.71
-3.62
-0.45
2.62
5.36
7.54
8.98
9.64
9.66
9.25
8.66
8.07
7.51
6.99
6.58
6.37
6.45
6.83
7.36
7.82
8.01
7.88
7.49
7.03
6.56
6.07
5.41
4.47
3.23
1.79
0.31
-1.08
-2.34
-3.5
-4.64
-5.85
-7.23
-8.85
-10.67
-12.49
-13.96
-14.67
-14.31
-12.77
-10.19
-6.9
-3.26
0.4
3.79
6.68
8.91
10.35
11.03
11.09
10.77
10.28
9.76
9.24
8.64
7.94
7.13
6.32
5.67
5.31
5.27
5.49
5.84
6.16
6.35
6.35
6.11
5.61
4.81
3.7
2.34
0.91
-0.4
-1.44
-2.19
-2.83
-3.6
-4.77
-6.41
-8.37
-10.28
-11.67
-12.08
-11.23
-9.04
-5.71
-1.64
2.68
6.72
10.03
12.29
13.36
13.36
12.54
11.29
9.97
8.78
7.76
6.77
5.66
4.39
3.05
1.86
1.03
0.65
0.7
0.97
1.2
1.13
0.58
-0.51
-2.02
-3.73
-5.34
-6.64
-7.55
-8.17
-8.69
-9.34
-10.26
-11.41
-12.61
-13.56
-13.92
-13.43
-11.99
-9.7
-6.82
-3.65
-0.48
2.51
5.21
7.51
9.28
10.38
10.74
10.39
9.48
8.25
6.9
5.6
4.46
3.59
3.08
2.99
3.23
3.61
3.84
3.6
2.77
1.36
-0.42
-2.29
-4.01
-5.44
-6.59
-7.54
-8.42
-9.38
-10.55
-12.04
-13.94
-16.19
-18.59
-20.66
-21.78
-21.31
-18.81
-14.35
-8.48
-2.13
3.74
8.45
11.73
13.71
14.73
15.15
15.12
14.71
13.89
12.72
11.33
9.92
8.7
7.74
7
6.33
5.62
4.81
3.98
3.23
2.61
2.04
1.35
0.38
-0.87
-2.25
-3.53
-4.52
-5.22
-5.89
-6.85
-8.45
-10.79
-13.79
-17.08
-20.14
-22.36
-23.14
-22.03
-18.86
-13.83
-7.54
-0.81
5.49
10.71
14.54
17.04
18.47
19.18
19.43
19.35
18.99
18.42
17.75
17.1
16.58
16.21
15.95
15.72
15.46
15.14
14.77
14.4
14.05
13.76
13.48
13.11
12.55
11.69
10.52
9.17
7.81
6.67
5.88
5.43
5.2
4.98
4.55
3.83
2.85
1.79
0.86
0.27
0.08
0.19
0.39
0.49
0.39
0.14
-0.17
-0.48
-0.76
-1.1
-1.6
-2.29
-3.15
-4.12
-5.14
-6.18
-7.26
-8.46
-9.83
-11.45
-13.23
-15.02
-16.48
-17.27
-17.11
-15.94
-13.89
-11.28
-8.47
-5.81
-3.53
-1.73
-0.4
0.58
1.3
1.8
2.04
1.94
1.47
0.72
-0.13
-0.93
-1.57
-2.09
-2.55
-2.94
-3.18
-3.12
-2.67
-1.87
-0.92
-0.1
0.35
0.32
-0.14
-0.86
-1.57
-2.06
-2.19
-1.97
-1.55
-1.13
-0.91
-0.92
-1.14
-1.43
-1.68
-1.82
-1.86
-1.82
-1.81
-1.92
-2.25
-2.87
-3.76
-4.81
-5.87
-6.79
-7.46
-7.92
-8.2
-8.46
-8.86
-9.57
-10.67
-12.12
-13.67
-14.9
-15.36
-14.73
-12.99
-10.39
-7.36
-4.33
-1.58
0.78
2.77
4.44
5.85
6.95
7.7
8.03
7.92
7.4
6.59
5.66
4.79
4.11
3.69
3.48
3.45
3.54
3.73
4.07
4.56
5.14
5.68
6.02
6.03
5.68
5.04
4.27
3.52
2.89
2.4
1.98
1.56
1.06
0.4
-0.45
-1.45
-2.53
-3.57
-4.47
-5.21
-5.81
-6.36
-6.95
-7.65
-8.49
-9.49
-10.62
-11.77
-12.68
-13
-12.43
-10.86
-8.42
-5.51
-2.56
0.1
2.35
4.25
5.89
7.34
8.54
9.35
9.7
9.61
9.22
8.75
8.36
8.13
8.03
7.97
7.89
7.78
7.65
7.52
7.38
7.19
6.93
6.65
6.4
6.21
6.03
5.72
5.15
4.26
3.16
2.03
1.04
0.25
-0.42
-1.08
-1.84
-2.73
-3.71
-4.67
-5.54
-6.33
-7.17
-8.2
-9.53
-11.15
-12.82
-14.12
-14.58
-13.86
-11.94
-9.06
-5.71
-2.41
0.43
2.62
4.12
5.03
5.47
5.6
5.53
5.31
4.94
4.41
3.74
3.02
2.41
2.09
2.15
2.54
3.06
3.46
3.55
3.25
2.63
1.83
1.03
0.36
-0.11
-0.41
-0.66
-1.01
-1.63
-2.58
-3.81
-5.18
-6.54
-7.76
-8.82
-9.74
-10.63
-11.55
-12.58
-13.75
-15.05
-16.43
-17.67
-18.43
-18.3
-16.91
-14.14
-10.21
-5.65
-1.12
2.8
5.83
8.01
9.54
10.69
11.56
12.12
12.27
11.95
11.19
10.13
8.92
7.75
6.75
6
5.56
5.38
5.35
5.38
5.41
5.44
5.5
5.59
5.62
5.41
4.82
3.76
2.3
0.64
-1.06
-2.63
-4.04
-5.33
-6.59
-7.94
-9.45
-11.15
-12.95
-14.69
-16.06
-16.75
-16.48
-15.12
-12.69
-9.47
-5.83
-2.19
1.08
3.78
5.86
7.39
8.42
9.01
9.14
8.81
8.1
7.14
6.16
5.33
4.75
4.42
4.27
4.2
4.16
4.16
4.19
4.19
4.1
3.82
3.31
2.58
1.7
0.76
-0.22
-1.23
-2.32
-3.53
-4.91
-6.44
-8.14
-10.01
-11.98
-13.85
-15.29
-15.89
-15.29
-13.34
-10.15
-6.19
-2.01
1.82
4.96
7.3
8.93
9.99
10.57
10.73
10.52
10
9.32
8.61
8
7.48
7.03
6.61
6.23
5.94
5.76
5.69
5.6
5.4
4.97
4.33
3.51
2.57
1.55
0.43
-0.85
-2.33
-4.07
-6.16
-8.62
-11.39
-14.18
-16.57
-18
-18
-16.31
-13
-8.48
-3.33
1.84
6.51
10.37
13.21
14.99
15.73
15.57
14.72
13.44
12.03
10.71
9.6
8.69
7.9
7.15
6.42
5.75
5.19
4.75
4.39
4.02
3.56
2.93
2.07
0.93
-0.54
-2.32
-4.3
-6.38
-8.48
-10.65
-13.04
-15.79
-18.89
-22.08
-24.81
-26.43
-26.36
-24.23
-20.02
-14.11
-7.22
-0.2
6.07
11.03
14.5
16.67
17.95
18.77
19.35
19.74
19.82
19.53
18.88
17.99
17.04
16.18
15.47
14.85
14.2
13.44
12.54
11.55
10.54
9.51
8.35
6.85
4.87
2.39
-0.35
-3.03
-5.33
-7.18
-8.74
-10.29
-12.16
-14.56
-17.52
-20.93
-24.46
-27.63
-29.74
-30.04
-27.95
-23.3
-16.49
-8.42
-0.26
6.97
12.62
16.58
19.09
20.6
21.43
21.76
21.67
21.17
20.39
19.5
18.67
17.96
17.38
16.88
16.48
16.25
16.24
16.39
16.55
16.49
16.08
15.3
14.27
13.15
12.05
11.05
10.14
9.32
8.56
7.79
6.93
5.88
4.58
3.09
1.56
0.21
-0.78
-1.32
-1.45
-1.33
-1.18
-1.24
-1.65
-2.44
-3.48
-4.55
-5.49
-6.19
-6.66
-6.96
-7.14
-7.28
-7.44
-7.68
-8.06
-8.59
-9.22
-9.88
-10.49
-11.04
-11.6
-12.28
-13.17
-14.24
-15.4
-16.53
-17.6
-18.68
-19.94
-21.54
-23.39
-25.21
-26.53
-26.84
-25.79
-23.31
-19.57
-14.95
-9.95
-5.01
-0.56
3.17
6.06
8.15
9.58
10.49
10.99
11.12
10.97
10.63
10.28
10.06
10.03
10.13
10.24
10.26
10.22
10.27
10.56
11.19
12.07
12.95
13.49
13.43
12.65
11.28
9.62
8.01
6.68
5.66
4.8
3.93
2.95
1.91
0.93
0.16
-0.37
-0.75
-1.06
-1.38
-1.71
-2.04
-2.36
-2.76
-3.26
-3.88
-4.53
-5.12
-5.61
-5.98
-6.31
-6.66
-7.1
-7.69
-8.45
-9.37
-10.45
-11.69
-13.08
-14.67
-16.42
-18.22
-19.82
-20.85
-20.91
-19.76
-17.37
-13.99
-10.09
-6.17
-2.62
0.41
2.93
5.13
7.12
8.93
10.4
11.33
11.55
11.09
10.18
9.16
8.36
7.94
7.9
8.06
8.3
8.53
8.79
9.11
9.48
9.83
9.98
9.79
9.19
8.21
7
5.74
4.56
3.55
2.69
1.92
1.17
0.38
-0.5
-1.47
-2.54
-3.67
-4.79
-5.8
-6.59
-7.16
-7.59
-8.07
-8.84
-10.06
-11.68
-13.4
-14.71
-15.07
-14.11
-11.84
-8.58
-4.93
-1.45
1.49
3.78
5.43
6.51
7.03
7
6.5
5.77
5.13
4.88
5.13
5.78
6.57
7.23
7.57
7.54
7.21
6.7
6.15
5.65
5.25
4.96
4.74
4.52
4.25
3.85
3.18
2.16
0.77
-0.87
-2.51
-3.84
-4.69
-5.11
-5.34
-5.69
-6.35
-7.34
-8.6
-10.08
-11.76
-13.65
-15.63
-17.34
-18.29
-17.98
-16.19
-13.12
-9.27
-5.32
-1.88
0.75
2.54
3.66
4.38
4.9
5.3
5.61
5.84
6.01
6.16
6.3
6.39
6.4
6.25
5.97
5.6
5.25
4.97
4.81
4.71
4.6
4.39
4.01
3.41
2.58
1.53
0.29
-1.06
-2.43
-3.71
-4.78
-5.58
-6.09
-6.42
-6.78
-7.41
-8.49
-10.06
-11.93
-13.68
-14.82
-14.9
-13.7
-11.32
-8.1
-4.51
-1.01
2.12
4.78
6.92
8.55
9.67
10.24
10.28
9.89
9.21
8.42
7.71
7.16
6.82
6.6
6.38
6.01
5.44
4.77
4.16
3.81
3.8
4.04
4.3
4.32
3.93
3.06
1.81
0.36
-1.14
-2.57
-3.89
-5.11
-6.28
-7.47
-8.71
-10.03
-11.38
-12.68
-13.8
-14.48
-14.55
-13.79
-12.17
-9.77
-6.83
-3.67
-0.57
2.19
4.41
5.93
6.71
6.83
6.51
6.01
5.56
5.23
5
4.79
4.55
4.25
3.91
3.48
2.89
2.11
1.19
0.34
-0.24
-0.44
-0.36
-0.24
-0.36
-0.87
-1.75
-2.86
-4.06
-5.31
-6.68
-8.33
-10.33
-12.59
-14.76
-16.35
-16.86
-15.94
-13.62
-10.25
-6.39
-2.57
0.9
3.98
6.78
9.38
11.7
13.52
14.6
14.87
14.43
13.56
12.52
11.51
10.58
9.72
8.89
8.13
7.45
6.91
6.51
6.22
5.97
5.61
4.98
3.95
2.42
0.45
-1.76
-4
-6.07
-7.88
-9.52
-11.19
-13.13
-15.55
-18.45
-21.61
-24.5
-26.41
-26.6
-24.62
-20.46
-14.6
-7.9
-1.29
4.51
9.1
12.42
14.55
15.69
16.04
15.83
15.25
14.5
13.7
12.9
12.17
11.53
11.02
10.67
10.38
10.03
9.47
8.63
7.57
6.46
5.48
4.72
4.09
3.4
2.4
0.98
-0.85
-2.91
-4.94
-6.73
-8.21
-9.49
-10.81
-12.49
-14.76
-17.67
-21.02
-24.28
-26.75
-27.68
-26.5
-23.06
-17.69
-11.12
-4.19
2.35
8.04
12.68
16.22
18.63
19.9
20.07
19.37
18.14
16.78
15.62
14.82
14.37
14.18
14.1
13.98
13.7
13.18
12.39
11.38
10.24
9.08
7.98
6.99
6.11
5.28
4.36
3.25
1.85
0.23
-1.41
-2.82
-3.86
-4.6
-5.28
-6.21
-7.58
-9.42
-11.66
-14.14
-16.76
-19.33
-21.57
-23.01
-23.15
-21.58
-18.25
-13.45
-7.8
-2.02
3.26
7.61
10.81
12.86
13.87
14.06
13.65
12.83
11.8
10.68
9.59
8.6
7.79
7.16
6.75
6.55
6.51
6.58
6.64
6.61
6.39
5.93
5.22
4.21
2.86
1.11
-0.99
-3.27
-5.49
-7.39
-8.82
-9.92
-10.97
-12.4
-14.49
-17.26
-20.34
-23.08
-24.73
-24.66
-22.52
-18.4
-12.74
-6.21
0.47
6.72
12.18
16.67
20.15
22.59
24
24.37
23.78
22.44
20.65
18.74
16.97
15.47
14.19
12.99
11.75
10.5
9.35
8.44
7.85
7.48
7.07
6.28
4.8
2.49
-0.56
-4.03
-7.52
-10.65
-13.27
-15.44
-17.42
-19.6
-22.28
-25.59
-29.44
-33.41
-36.75
-38.52
-37.74
-33.72
-26.35
-16.27
-4.75
6.6
16.36
23.64
28.27
30.63
31.41
31.22
30.43
29.14
27.38
25.24
22.94
20.81
19.05
17.7
16.51
15.16
13.41
11.31
9.16
7.36
6.21
5.69
5.45
4.96
3.71
1.43
-1.74
-5.4
-8.96
-11.95
-14.17
-15.77
-17.15
-18.8
-21.06
-24.08
-27.74
-31.69
-35.28
-37.66
-37.86
-35.03
-28.81
-19.58
-8.49
2.87
12.92
20.63
25.67
28.39
29.42
29.35
28.51
27.05
25.05
22.73
20.45
18.64
17.58
17.3
17.58
18.04
18.33
18.23
17.75
17.02
16.23
15.53
14.94
14.38
13.7
12.75
11.45
9.86
8.17
6.62
5.37
4.46
3.72
2.96
1.99
0.78
-0.59
-1.94
-3.09
-3.96
-4.62
-5.16
-5.68
-6.25
-6.88
-7.59
-8.39
-9.38
-10.62
-12.13
-13.78
-15.33
-16.55
-17.3
-17.65
-17.9
-18.44
-19.62
-21.56
-24.13
-26.86
-29.14
-30.28
-29.65
-26.92
-22.12
-15.71
-8.49
-1.43
4.61
9.07
11.8
13.05
13.28
13.01
12.59
12.15
11.65
10.99
10.17
9.27
8.46
7.88
7.59
7.53
7.61
7.82
8.13
8.54
8.97
9.28
9.31
8.97
8.25
7.21
5.92
4.45
2.88
1.38
0.15
-0.67
-1.01
-1.04
-1.06
-1.4
-2.27
-3.64
-5.26
-6.78
-7.88
-8.42
-8.47
-8.33
-8.37
-8.9
-10.05
-11.71
-13.51
-15.02
-15.79
-15.55
-14.19
-11.78
-8.51
-4.65
-0.47
3.69
7.51
10.65
12.78
13.72
13.5
12.32
10.59
8.75
7.12
5.88
4.99
4.31
3.71
3.16
2.66
2.31
2.18
2.28
2.53
2.79
2.9
2.71
2.18
1.32
0.27
-0.87
-2.01
-3.12
-4.25
-5.42
-6.57
-7.64
-8.56
-9.32
-9.97
-10.6
-11.29
-12.05
-12.85
-13.7
-14.61
-15.57
-16.43
-16.94
-16.71
-15.44
-13.07
-9.83
-6.2
-2.69
0.32
2.71
4.56
6
7.12
7.89
8.22
8.07
7.44
6.48
5.36
4.25
3.29
2.55
2.08
1.85
1.81
1.93
2.17
2.53
2.93
3.27
3.39
3.14
2.48
1.47
0.29
-0.89
-1.9
-2.68
-3.27
-3.83
-4.53
-5.51
-6.81
-8.32
-9.87
-11.23
-12.19
-12.61
-12.35
-11.32
-9.43
-6.72
-3.36
0.27
3.74
6.64
8.71
9.88
10.25
10.02
9.43
8.7
8.02
7.46
7.07
6.77
6.44
5.94
5.2
4.2
3.07
1.99
1.19
0.8
0.74
0.82
0.72
0.24
-0.66
-1.92
-3.39
-4.96
-6.57
-8.13
-9.54
-10.7
-11.61
-12.43
-13.42
-14.72
-16.18
-17.36
-17.69
-16.73
-14.39
-10.96
-6.91
-2.74
1.21
4.74
7.75
10.16
11.9
12.95
13.34
13.22
12.75
12.07
11.3
10.5
9.71
8.98
8.35
7.85
7.48
7.21
6.98
6.69
6.31
5.81
5.17
4.4
3.47
2.33
0.94
-0.66
-2.37
-4.05
-5.56
-6.91
-8.24
-9.75
-11.51
-13.44
-15.23
-16.45
-16.72
-15.8
-13.68
-10.54
-6.7
-2.59
1.4
4.94
7.81
9.91
11.31
12.06
12.22
11.81
10.86
9.5
7.97
6.58
5.58
5.03
4.83
4.8
4.76
4.62
4.41
4.18
3.95
3.66
3.21
2.48
1.43
0.07
-1.46
-2.97
-4.28
-5.27
-5.98
-6.52
-7.09
-7.89
-9.04
-10.54
-12.29
-14.02
-15.38
-15.98
-15.48
-13.74
-10.87
-7.19
-3.19
0.65
3.98
6.62
8.48
9.61
10.1
10.1
9.77
9.26
8.7
8.12
7.56
7.01
6.46
5.86
5.16
4.3
3.32
2.35
1.6
1.18
1.08
1.07
0.83
0.08
-1.23
-2.95
-4.73
-6.21
-7.12
-7.42
-7.32
-7.17
-7.33
-8.11
-9.55
-11.45
-13.38
-14.8
-15.26
-14.48
-12.45
-9.4
-5.72
-1.91
1.65
4.66
6.99
8.65
9.63
10
9.74
8.96
7.83
6.61
5.55
4.8
4.32
3.93
3.46
2.78
1.99
1.3
0.94
0.98
1.3
1.6
1.55
0.97
-0.16
-1.58
-3.02
-4.28
-5.33
-6.34
-7.55
-9.21
-11.4
-14.06
-16.99
-19.82
-22.2
-23.82
-24.55
-24.48
-23.89
-23.06
-22.2
-21.36
-20.46
-19.53
-18.77
-18.67
-19.84
-22.78
-27.55
-33.78
-40.62
-47.2
-52.92
-57.72
-62.12
-66.92
-72.77
-79.84
-87.69
-95.5
-102.51
-108.39
-113.41
-118.26
-123.76
-130.54
-138.79
-148.12
-157.58
-165.64
-170.33
-169.53
-161.5
-145.63
-123.19
-97.53
-73.7
-57.07
-51.57
-58.09
-73.86
-93.35
-110.31
-120.34
-122.26
-117.57
-108.39
-95.79
-79.8
-60.99
-42.2
-28.44
-24.47
-31.34
-44.47
-54.89
-53.44
-35.54
-3.57
34.57
69.39
94.07
106.42
108.16
102.7
93.32
82.59
72.9
66.64
65.71
70.56
79.59
89.43
96.09
96.58
89.99
77.66
62.47
47.84
36.73
31.07
31.54
37.6
47.74
59.9
71.9
82
89.21
93.43
95.13
94.99
93.63
91.53
89.07
86.58
84.22
81.89
79.19
75.62
70.81
64.71
57.67
50.28
43.08
36.44
30.44
24.96
19.71
14.36
8.49
1.76
-6.08
-14.94
-24.26
-32.94
-39.54
-42.71
-41.87
-37.63
-31.71
-26.34
-23.3
-23.12
-24.93
-26.99
-27.57
-25.48
-20.31
-12.11
-1.16
12.01
26.27
39.58
49.28
52.83
48.78
37.55
21.28
3.07
-14.31
-29.18
-41.19
-50.74
-58.29
-63.81
-66.77
-66.7
-63.72
-58.85
-53.62
-49.33
-46.37
-44.06
-41.12
-36.48
-30
-22.46
-15.14
-9.03
-4.43
-1.01
1.88
4.76
7.91
11.44
15.57
20.69
27.24
35.5
45.51
56.92
69.17
81.54
93.36
104.3
114.54
124.89
136.52
150.41
166.62
183.95
200.04
212.19
218.37
218.05
212.36
203.65
194.48
186.74
181.1
177.17
174.06
171.09
168.12
165.42
163.23
161.17
158.08
152.26
142.13
126.91
107.14
84.52
61.42
40.04
21.75
6.87
-5.12
-15.1
-23.71
-31.18
-37.43
-42.36
-46.16
-49.23
-51.99
-54.61
-57.03
-59.13
-60.98
-63.05
-66.07
-70.92
-78.27
-88.37
-100.69
-113.86
-125.71
-133.74
-135.81
-130.88
-119.42
-103.23
-84.78
-66.38
-49.57
-35.02
-22.79
-12.69
-4.49
2.21
8.01
13.67
19.77
26.37
32.98
38.91
43.75
47.72
51.46
55.55
60.06
64.42
67.85
69.85
70.47
69.99
68.51
65.55
60.27
52.19
41.8
30.81
21.63
16.47
16.57
21.95
31.62
44.06
57.61
70.68
81.75
89.61
93.5
93.35
89.71
83.53
75.81
67.28
58.44
49.64
41.27
33.82
27.76
23.28
20.16
17.85
15.64
12.97
9.65
5.89
2.18
-0.95
-3.16
-4.43
-5.07
-5.54
-6.32
-7.7
-9.74
-12.24
-14.89
-17.36
-19.34
-20.66
-21.23
-21.05
-20.17
-18.73
-16.91
-14.97
-13.21
-11.94
-11.41
-11.72
-12.81
-14.46
-16.37
-18.28
-20.07
-21.81
-23.73
-26.06
-28.88
-32.1
-35.44
-38.53
-41.07
-42.93
-44.13
-44.8
-45.11
-45.22
-45.25
-45.35
-45.63
-46.23
-47.31
-49.01
-51.49
-54.82
-58.93
-63.55
-68.18
-72.17
-74.9
-75.96
-75.25
-72.98
-69.5
-65.22
-60.43
-55.32
-49.96
-44.39
-38.63
-32.69
-26.57
-20.24
-13.66
-6.81
0.31
7.56
14.73
21.5
27.57
32.67
36.68
39.64
41.7
43.06
43.81
43.9
43.17
41.51
38.91
35.56
31.82
27.97
24.14
20.2
15.86
10.89
5.4
-0.1
-4.88
-8.22
-9.76
-9.65
-8.43
-6.75
-5
-3.26
-1.28
1.16
4.04
6.93
9.19
10.32
10.17
9.05
7.58
6.32
5.62
5.48
5.69
6.03
6.28
6.23
5.59
3.97
1.24
-2.24
-5.41
-6.85
-5.39
-0.79
5.93
12.79
17.6
18.88
16.34
10.78
3.51
-4.27
-11.87
-19
-25.46
-30.95
-35.1
-37.76
-39.15
-39.8
-40.25
-40.68
-40.89
-40.41
-38.86
-36.14
-32.47
-28.14
-23.3
-17.9
-11.84
-5.1
2.15
9.57
16.85
23.76
30.12
35.84
40.95
45.76
50.87
57.04
64.75
73.77
83.08
91.08
96.19
97.38
94.48
88
78.77
67.64
55.36
42.69
30.53
19.91
11.74
6.53
4.15
3.91
4.77
5.69
5.92
5.13
3.38
0.95
-1.8
-4.63
-7.4
-10.02
-12.41
-14.37
-15.6
-15.76
-14.59
-12.05
-8.33
-3.94
0.35
3.61
4.98
4.02
0.93
-3.3
-7.22
-9.33
-8.69
-5.28
0.11
6.23
11.97
16.63
19.99
21.94
22.23
20.42
16.2
9.79
2.2
-5.2
-11.26
-15.86
-20.15
-26.02
-35.14
-47.92
-63.21
-78.77
-92.3
-102.46
-109.08
-112.75
-114.03
-112.92
-108.99
-102.11
-93.05
-83.52
-75.51
-70.3
-67.81
-66.64
-64.94
-61.32
-55.62
-48.75
-42.14
-36.99
-33.73
-32.13
-31.71
-32.11
-33.38
-35.85
-39.79
-45.06
-50.95
-56.27
-59.88
-61.21
-60.58
-59.14
-58.38
-59.35
-62.22
-66.11
-69.56
-71.24
-70.39
-66.99
-61.5
-54.41
-46.01
-36.26
-25.02
-12.22
1.97
17.11
32.51
47.25
60.34
70.89
78.27
82.16
82.61
79.96
74.78
67.81
59.92
52.1
45.33
40.4
37.63
36.7
36.68
36.21
33.79
28.11
18.18
3.52
-15.68
-38.44
-62.78
-85.79
-103.85
-113.32
-111.42
-97.28
-72.65
-41.85
-10.81
14.58
30.24
35.16
31.38
23.16
15.27
11.35
13.1
19.9
29.22
37.19
39.58
33.06
16.68
-7.18
-32.94
-53.16
-60.89
-52.07
-27.15
8.9
48.12
82.25
105.37
115.64
115.23
108.77
100.91
94.3
88.9
82.74
73.62
60.63
44.57
27.19
9.95
-6.66
-22.92
-39
-54.33
-67.64
-77.61
-83.74
-86.54
-87.21
-86.82
-85.69
-83.42
-79.25
-72.83
-64.52
-55.24
-46.02
-37.41
-29.35
-21.39
-13.27
-5.3
1.72
6.88
9.86
11.23
12.27
14.44
18.7
24.98
32.26
38.96
43.65
45.68
45.54
44.58
44.44
46.15
49.49
53.02
54.8
53.35
48.34
40.61
31.56
22.27
13.06
3.58
-6.68
-17.75
-29.13
-39.91
-49.17
-56.2
-60.48
-61.81
-60.47
-57.52
-54.75
-54.11
-56.72
-61.9
-67.1
-68.73
-63.59
-50.23
-29.45
-3.88
23
47.91
68.41
83.07
91.43
93.92
91.65
86.27
79.51
72.77
66.92
62.11
58.04
54.13
49.78
44.48
37.95
30.28
21.9
13.61
6.21
0.26
-4.25
-7.82
-11.25
-15.33
-20.54
-26.93
-34.06
-41.06
-46.82
-50.24
-50.53
-47.5
-41.64
-34.01
-25.93
-18.49
-12.3
-7.36
-3.31
0.28
3.61
6.52
8.61
9.5
9.03
7.41
5.12
2.7
0.61
-0.97
-2.04
-2.64
-2.83
-2.57
-1.9
-0.96
-0.07
0.39
0.08
-1.17
-3.29
-6
-8.94
-11.77
-14.4
-16.96
-19.76
-23.02
-26.7
-30.27
-32.83
-33.36
-31.19
-26.26
-19.13
-10.74
-2.11
5.98
13.05
18.86
23.29
26.22
27.62
27.61
26.45
24.55
22.32
20.06
17.93
15.97
14.2
12.62
11.32
10.31
9.55
8.84
7.84
6.23
3.75
0.41
-3.59
-7.85
-11.97
-15.64
-18.8
-21.68
-24.68
-28.23
-32.5
-37.22
-41.62
-44.59
-45
-42.12
-35.84
-26.78
-16.06
-4.93
5.45
14.32
21.26
26.15
29.03
30.08
29.56
27.86
25.46
22.81
20.27
18.02
16.01
14.15
12.28
10.37
8.42
6.44
4.38
2.14
-0.41
-3.28
-6.39
-9.57
-12.65
-15.6
-18.54
-21.75
-25.47
-29.77
-34.44
-38.9
-42.37
-44.02
-43.22
-39.66
-33.45
-25.09
-15.39
-5.29
4.33
12.8
19.74
25.08
28.91
31.42
32.75
33.03
32.39
31.05
29.29
27.42
25.72
24.3
23.18
22.25
21.41
20.49
19.35
17.84
15.87
13.38
10.37
6.91
3.08
-1.09
-5.66
-10.73
-16.41
-22.67
-29.25
-35.59
-40.89
-44.25
-44.91
-42.46
-36.94
-28.84
-18.95
-8.23
2.37
12.03
20.1
26.23
30.33
32.59
33.38
33.14
32.34
31.32
30.3
29.4
28.63
27.98
27.4
26.89
26.39
25.86
25.18
24.19
22.75
20.74
18.18
15.21
12.02
8.79
5.64
2.57
-0.5
-3.77
-7.38
-11.3
-15.17
-18.24
-19.54
-18.15
-13.52
-5.71
4.66
16.6
29.16
41.62
53.53
64.54
74.33
82.52
88.91
93.6
97.07
100.06
103.29
107.26
112.08
117.56
123.21
128.35
132.14
133.67
132.09
127.01
118.7
108.11
96.55
85.18
74.49
64.2
53.55
41.85
28.91
15.19
1.57
-11.16
-22.63
-32.98
-42.59
-51.71
-60.14
-67.36
-72.8
-76.27
-78.12
-79.13
-80.2
-81.85
-84.1
-86.52
-88.59
-90.03
-90.96
-91.76
-92.87
-94.48
-96.42
-98.29
-99.59
-99.87
-98.79
-96.22
-92.2
-86.92
-80.64
-73.66
-66.28
-58.7
-51.14
-43.85
-37.14
-31.34
-26.77
-23.71
-22.31
-22.57
-24.19
-26.43
-28.1
-27.69
-23.77
-15.62
-3.67
10.53
24.75
36.91
45.79
51.33
54.35
55.88
56.53
56.15
54.1
49.74
42.97
34.38
25.17
16.64
9.79
5.06
2.31
1.06
0.78
1.14
2.08
3.65
5.81
8.24
10.33
11.48
11.41
10.38
9
7.93
7.41
7.14
6.47
4.87
2.33
-0.62
-3.24
-4.99
-5.82
-6.1
-6.29
-6.62
-7.02
-7.28
-7.33
-7.35
-7.75
-8.83
-10.62
-12.81
-14.89
-16.45
-17.34
-17.67
-17.75
-17.87
-18.18
-18.76
-19.65
-21
-23.07
-26.17
-30.47
-35.9
-42.06
-48.37
-54.21
-59.12
-62.88
-65.49
-67.07
-67.83
-68.06
-68.16
-68.62
-69.88
-72.19
-75.3
-78.46
-80.48
-80.05
-76.27
-68.96
-58.75
-46.98
-35.2
-24.73
-16.27
-9.88
-5.11
-1.42
1.57
3.91
5.48
6.12
5.91
5.19
4.49
4.3
4.91
6.28
8.14
10.13
12
13.67
15.21
16.71
18.12
19.23
19.74
19.41
18.22
16.4
14.33
12.28
10.26
7.98
4.93
0.64
-5.07
-11.92
-19.17
-25.73
-30.46
-32.41
-31.09
-26.61
-19.63
-11.15
-2.26
6.17
13.65
20.01
25.34
29.73
33.17
35.57
36.81
36.88
35.96
34.4
32.62
31.01
29.78
28.96
28.38
27.79
26.92
25.57
23.63
21.1
18.06
14.69
11.2
7.79
4.58
1.62
-1.19
-4.02
-7.18
-11.04
-15.97
-22.18
-29.56
-37.47
-44.71
-49.72
-51.02
-47.65
-39.57
-27.65
-13.44
1.36
15.32
27.52
37.55
45.33
50.87
54.26
55.69
55.52
54.29
52.62
51.01
49.69
48.67
47.76
46.84
45.89
44.98
44.17
43.33
42.16
40.19
37.07
32.65
27.12
20.97
14.73
8.85
3.52
-1.31
-5.91
-10.65
-15.91
-21.97
-28.91
-36.48
-43.99
-50.41
-54.57
-55.51
-52.82
-46.75
-38.24
-28.58
-19.12
-10.87
-4.38
0.3
3.47
5.6
7.13
8.28
9.07
9.33
8.96
8.02
6.83
5.88
5.56
6.09
7.35
9.08
10.99
12.94
14.87
16.7
18.14
18.71
17.87
15.31
11.21
6.16
0.99
-3.59
-7.25
-10.12
-12.66
-15.41
-18.88
-23.43
-29.24
-36.26
-44.09
-51.87
-58.33
-62.01
-61.72
-56.95
-48.1
-36.32
-23.18
-10.12
1.87
12.34
21.21
28.55
34.35
38.5
40.88
41.52
40.71
38.96
36.95
35.29
34.41
34.47
35.34
36.71
38.17
39.29
39.75
39.36
38.11
36.11
33.56
30.65
27.49
24.06
20.33
16.28
12.03
7.78
3.74
-0.02
-3.61
-7.34
-11.57
-16.64
-22.71
-29.67
-37.15
-44.41
-50.4
-53.97
-54.14
-50.44
-43.13
-33.1
-21.66
-10.15
0.35
9.21
16.19
21.36
24.92
27.19
28.51
29.23
29.64
29.93
30.19
30.45
30.73
31.07
31.49
31.91
32.08
31.64
30.29
27.92
24.7
21.03
17.34
13.9
10.72
7.7
4.75
1.93
-0.54
-2.44
-3.75
-4.73
-5.82
-7.52
-10.2
-14.04
-19.11
-25.36
-32.63
-40.51
-48.19
-54.5
-58.1
-57.91
-53.48
-45.2
-34.19
-21.95
-9.91
0.89
9.89
16.9
21.85
24.74
25.56
24.47
21.88
18.45
14.89
11.81
9.51
8.01
7.11
6.5
5.96
5.39
4.75
4.02
3.1
1.8
-0.14
-2.9
-6.48
-10.64
-15.02
-19.26
-23.14
-26.69
-30.08
-33.5
-37.08
-40.85
-44.75
-48.61
-52.09
-54.53
-55.09
-52.8
-46.97
-37.46
-24.81
-10.19
4.95
19.21
31.52
41.33
48.46
52.95
54.95
54.65
52.28
48.28
43.3
38.11
33.51
30.05
27.86
26.71
26.1
25.53
24.69
23.57
22.33
21.15
20.09
18.98
17.54
15.5
12.79
9.55
6.06
2.58
-0.74
-3.96
-7.31
-11.1
-15.68
-21.27
-27.86
-35.03
-41.93
-47.33
-49.96
-48.9
-43.94
-35.69
-25.37
-14.42
-4.12
4.63
11.45
16.28
19.34
20.94
21.47
21.36
20.98
20.6
20.38
20.29
20.21
19.99
19.55
18.93
18.32
17.98
18.15
18.82
19.73
20.31
19.88
17.91
14.2
8.99
2.89
-3.33
-9.06
-13.98
-18.18
-22.03
-26.07
-30.8
-36.53
-43.21
-50.35
-56.98
-61.75
-63.26
-60.43
-52.91
-41.31
-27.12
-12.23
1.6
13.2
22.2
28.84
33.66
37.14
39.56
41.02
41.6
41.52
41.12
40.77
40.67
40.8
40.9
40.66
39.84
38.48
36.86
35.34
34.2
33.42
32.69
31.47
29.27
25.83
21.22
15.82
10.14
4.64
-0.4
-4.93
-9.1
-13.22
-17.67
-22.87
-29.11
-36.38
-44.09
-51.16
-56.07
-57.36
-54.09
-46.26
-34.78
-21.2
-7.23
5.77
17.01
26.2
33.32
38.41
41.46
42.52
41.89
40.09
37.84
35.79
34.35
33.55
33.21
33.04
32.84
32.58
32.3
32.04
31.73
31.19
30.15
28.4
25.81
22.37
18.18
13.38
8.12
2.55
-3.2
-8.97
-14.63
-20.06
-25.27
-30.38
-35.62
-41.24
-47.28
-53.42
-58.95
-62.82
-63.94
-61.5
-55.17
-45.34
-32.93
-19.26
-5.73
6.47
16.56
24.19
29.4
32.45
33.7
33.53
32.32
30.54
28.71
27.35
26.81
27.23
28.45
30.11
31.88
33.53
34.98
36.24
37.21
37.62
37
34.81
30.67
24.53
16.8
8.18
-0.5
-8.61
-15.91
-22.6
-29.17
-36.13
-43.78
-51.88
-59.7
-66.11
-69.89
-70.13
-66.44
-59.14
-49.08
-37.45
-25.48
-14.18
-4.25
3.94
10.25
14.69
17.41
18.68
18.83
18.27
17.38
16.49
15.82
15.45
15.46
15.86
16.71
18.06
19.95
22.26
24.72
26.95
28.53
29.19
28.86
27.69
25.95
23.85
21.49
18.73
15.26
10.7
4.75
-2.7
-11.4
-20.68
-29.44
-36.34
-40.07
-39.82
-35.53
-28.01
-18.64
-9
-0.36
6.49
11.27
14
14.84
13.99
11.84
8.97
6.14
4.06
3.13
3.28
4.02
4.75
5
4.75
4.35
4.33
5.1
6.68
8.66
10.31
10.93
10.09
7.86
4.64
1.02
-2.51
-5.78
-8.85
-11.96
-15.37
-19.23
-23.62
-28.47
-33.41
-37.68
-40.13
-39.48
-34.74
-25.63
-12.82
2.3
18.05
33.09
46.66
58.66
69.31
78.86
87.32
94.5
100.16
104.27
107.02
108.84
110.22
111.54
113.06
114.91
117.13
119.65
122.27
124.54
125.82
125.36
122.49
116.82
108.31
97.36
84.64
71.02
57.3
44.12
31.72
20.01
8.65
-2.74
-14.33
-25.94
-37.05
-47.01
-55.24
-61.48
-65.9
-69.09
-71.87
-75.02
-79.01
-83.8
-88.88
-93.51
-97.09
-99.41
-100.67
-101.33
-101.74
-101.95
-101.68
-100.58
-98.41
-95.26
-91.43
-87.33
-83.2
-79.15
-75.13
-71.14
-67.3
-63.83
-61.03
-59.14
-58.25
-58.27
-58.91
-59.75
-60.36
-60.42
-59.88
-58.99
-58.27
-58.31
-59.61
-62.31
-66.17
-70.48
-74.31
-76.62
-76.58
-73.69
-67.91
-59.6
-49.41
-38.15
-26.65
-15.66
-5.82
2.44
8.91
13.62
16.77
18.7
19.77
20.37
20.81
21.32
22
22.79
23.49
23.9
23.9
23.56
23.03
22.47
21.91
21.15
19.85
17.68
14.49
10.35
5.53
0.39
-4.75
-9.71
-14.38
-18.71
-22.7
-26.44
-30.17
-34.21
-38.88
-44.18
-49.57
-54.02
-56.19
-54.95
-49.8
-41.13
-30.1
-18.24
-6.94
2.87
10.8
16.8
20.95
23.23
23.6
22.14
19.23
15.56
11.98
9.21
7.56
6.88
6.66
6.26
5.21
3.34
0.72
-2.4
-5.73
-8.96
-11.81
-13.9
-14.84
-14.29
-12.06
-8.25
-3.15
2.81
9.26
16
22.96
30.07
37.06
43.32
47.97
50.06
48.91
44.33
36.75
27.09
16.54
6.2
-3.16
-11.18
-17.94
-23.74
-28.83
-33.24
-36.79
-39.15
-40.17
-39.86
-38.42
-35.97
-32.46
-27.78
-21.95
-15.46
-9.26
-4.4
-1.51
-0.43
-0.3
0.01
1.26
3.38
5.59
6.84
6.34
4
0.33
-3.83
-7.76
-11.17
-14.15
-17.1
-20.43
-24.37
-28.92
-33.82
-38.62
-42.72
-45.39
-45.82
-43.26
-37.25
-27.88
-15.79
-2.17
11.63
24.37
35.2
43.73
49.95
54.1
56.51
57.53
57.55
56.98
56.29
55.93
56.28
57.58
59.83
62.8
66.05
69.12
71.63
73.47
74.81
76.04
77.57
79.59
81.9
83.86
84.51
82.78
77.81
69.36
57.99
45.12
32.83
23.29
18.12
17.84
21.57
27.23
32.27
34.39
32.28
25.84
16.01
4.18
-8.3
-20.43
-31.6
-41.41
-49.53
-55.59
-59.29
-60.45
-59.12
-55.54
-50.15
-43.49
-36.15
-28.76
-21.82
-15.75
-10.79
-6.99
-4.3
-2.6
-1.76
-1.58
-1.9
-2.58
-3.62
-5.21
-7.62
-11.09
-15.55
-20.5
-25.02
-28.04
-28.7
-26.61
-22.04
-15.78
-8.87
-2.25
3.45
8.06
11.7
14.6
16.93
18.73
19.97
20.7
21.08
21.39
21.83
22.4
22.89
22.96
22.4
21.19
19.57
17.9
16.51
15.66
15.47
15.98
17.09
18.48
19.65
19.96
18.82
15.92
11.31
5.47
-0.94
-7.2
-12.65
-16.73
-18.97
-19.06
-16.96
-13.05
-8.03
-2.82
1.79
5.36
7.87
9.67
11.21
12.87
14.84
17.07
19.41
21.66
23.68
25.34
26.62
27.57
28.34
29.12
30.09
31.3
32.6
33.72
34.34
34.29
33.61
32.57
31.52
30.78
30.55
30.87
31.69
32.9
34.3
35.65
36.65
37.17
37.34
37.66
38.87
41.62
46.13
52.01
58.42
64.34
68.96
71.93
73.3
73.41
72.57
70.98
68.69
65.79
62.49
59.24
56.6
54.98
54.44
54.54
54.53
53.65
51.46
48.05
44.02
40.15
36.95
34.34
31.67
27.87
22.04
13.78
3.48
-7.94
-19.41
-30.13
-39.83
-48.61
-56.75
-64.43
-71.65
-78.35
-84.5
-90.2
-95.54
-100.55
-105.09
-108.94
-111.96
-114.09
-115.39
-115.99
-115.96
-115.36
-114.26
-112.82
-111.19
-109.49
-107.7
-105.67
-103.23
-100.31
-97.02
-93.67
-90.65
-88.23
-86.42
-84.99
-83.47
-81.4
-78.47
-74.53
-69.69
-64.2
-58.42
-52.79
-47.71
-43.48
-40.14
-37.45
-34.9
-31.89
-27.97
-23.09
-17.68
-12.61
-8.89
-7.34
-8.24
-11.2
-15.28
-19.34
-22.42
-24
-23.94
-22.35
-19.28
-14.68
-8.52
-0.98
7.4
15.83
23.63
30.5
36.67
42.65
48.98
55.79
62.73
69.11
74.25
77.73
79.58
80.18
80.03
79.55
78.96
78.26
77.39
76.28
74.93
73.38
71.67
69.72
67.39
64.49
60.92
56.77
52.37
48.29
45.2
43.74
44.34
46.98
51.19
56.02
60.33
63.14
64.01
63.21
61.56
59.98
58.94
58.12
56.56
53.14
47.17
38.73
28.62
17.92
7.5
-2.24
-11.42
-20.35
-29.32
-38.36
-47.31
-55.96
-64.21
-72.13
-79.96
-88.05
-96.78
-106.49
-117.39
-129.31
-141.59
-152.91
-161.38
-164.96
-162.06
-152.26
-136.67
-117.85
-99.13
-83.61
-73.21
-68.25
-67.69
-69.81
-73.02
-76.41
-79.74
-83.11
-86.46
-89.32
-90.93
-90.56
-87.95
-83.44
-77.83
-72.03
-66.72
-62.33
-58.9
-56.26
-53.93
-51.1
-46.6
-39.22
-28.09
-13.04
5.28
25.65
46.76
67.56
87.5
106.33
123.78
139.31
151.95
160.55
164.03
161.75
153.78
140.88
124.39
105.83
86.62
67.86
50.3
34.58
21.29
11.03
4.15
0.47
-0.82
-1.14
-1.97
-4.39
-8.63
-14.01
-19.24
-23.03
-24.61
-24.07
-22.29
-20.5
-19.76
-20.54
-22.72
-25.76
-29.08
-32.36
-35.52
-38.63
-41.64
-44.29
-46.14
-46.78
-45.96
-43.75
-40.49
-36.74
-33.09
-30.04
-27.96
-27.03
-27.3
-28.78
-31.38
-35.02
-39.55
-44.74
-50.22
-55.56
-60.25
-63.8
-65.86
-66.22
-64.9
-62.12
-58.31
-53.99
-49.61
-45.37
-41.16
-36.51
-30.78
-23.41
-14.13
-3.16
8.94
21.41
33.5
44.62
54.27
62.06
67.69
70.99
72.08
71.38
69.54
67.17
64.63
62
59.07
55.67
51.89
48.11
44.84
42.52
41.16
40.32
39.21
37.01
33.2
27.77
21.19
14.18
7.39
1.17
-4.51
-9.98
-15.58
-21.57
-27.99
-34.69
-41.4
-47.74
-53.26
-57.47
-59.99
-60.61
-59.45
-56.96
-53.73
-50.35
-47.26
-44.65
-42.55
-40.89
-39.54
-38.3
-36.88
-35
-32.42
-29.01
-24.8
-19.89
-14.34
-8.15
-1.34
6.01
13.59
20.97
27.61
33.06
37.08
39.69
41.12
41.77
42.04
42.23
42.39
42.32
41.62
39.88
36.96
33.19
29.47
27.11
27.41
31.27
38.86
49.48
61.85
74.44
85.88
95.21
101.92
105.85
106.98
105.34
100.95
93.84
84.17
72.26
58.59
43.75
28.31
12.65
-3.04
-18.72
-34.32
-49.63
-64.32
-78
-90.5
-101.99
-112.85
-123.44
-133.82
-143.58
-152.02
-158.42
-162.36
-163.84
-163.17
-160.71
-156.7
-151.14
-143.88
-134.76
-123.75
-111.03
-96.89
-81.73
-65.95
-50.02
-34.51
-20.1
-7.57
2.37
9.27
13.11
14.32
13.69
12.17
10.62
9.69
9.67
10.52
11.98
13.59
14.92
15.63
15.65
15.15
14.44
13.8
13.34
12.9
12.13
10.64
8.09
4.19
-1.22
-8.1
-16.04
-24.15
-31.03
-35.13
-35.15
-30.44
-21.22
-8.49
6.27
21.53
35.93
48.48
58.46
65.45
69.21
69.8
67.52
63.01
57.14
50.9
45.31
41.1
38.67
37.97
38.54
39.67
40.61
40.72
39.64
37.39
34.26
30.68
27.01
23.36
19.64
15.6
10.96
5.52
-0.92
-8.5
-17.15
-26.38
-35.03
-41.37
-43.49
-40.08
-30.99
-17.5
-1.87
13.48
26.74
37.17
44.97
50.77
55.13
58.26
60.1
60.54
59.75
58.15
56.37
54.97
54.25
54.22
54.67
55.22
55.55
55.38
54.53
52.9
50.44
47.13
42.97
38.06
32.53
26.53
20.13
13.25
5.62
-3.03
-12.79
-23.3
-33.63
-42.3
-47.65
-48.35
-43.83
-34.52
-21.72
-7.19
7.38
20.71
32.15
41.45
48.6
53.63
56.56
57.55
56.99
55.52
53.91
52.84
52.65
53.33
54.51
55.7
56.44
56.48
55.8
54.52
52.76
50.49
47.44
43.23
37.56
30.33
21.85
12.69
3.53
-5.1
-12.97
-20.23
-27.31
-34.7
-42.79
-51.61
-60.75
-69.33
-76.21
-80.18
-80.29
-76.05
-67.53
-55.27
-40.23
-23.68
-6.98
8.56
21.91
32.45
40
44.71
46.91
46.98
45.31
42.36
38.74
35.17
32.39
30.95
31.12
32.76
35.42
38.48
41.3
43.44
44.64
44.86
44.15
42.52
39.98
36.55
32.43
28
23.78
20.25
17.65
15.98
14.94
14.16
13.19
11.58
8.93
4.88
-0.62
-7.22
-14.02
-19.73
-22.98
-22.78
-18.78
-11.45
-1.85
8.67
18.92
28.08
35.75
41.8
46.16
48.71
49.38
48.22
45.58
42.12
38.6
35.7
33.79
32.9
32.73
32.87
32.89
32.53
31.68
30.38
28.71
26.72
24.32
21.29
17.46
12.79
7.5
2.04
-3.11
-7.67
-11.68
-15.46
-19.47
-24.06
-29.34
-35.01
-40.41
-44.62
-46.68
-45.8
-41.62
-34.3
-24.44
-12.97
-0.88
10.95
21.79
31.06
38.3
43.15
45.49
45.41
43.37
40.02
36.09
32.24
28.87
26.16
24.01
22.21
20.52
18.84
17.15
15.51
13.91
12.22
10.2
7.54
4.06
-0.25
-5.16
-10.27
-15.14
-19.43
-22.94
-25.7
-27.99
-30.27
-33.07
-36.81
-41.5
-46.55
-50.84
-52.97
-51.73
-46.52
-37.67
-26.26
-13.84
-1.87
8.61
17.13
23.64
28.29
31.22
32.51
32.28
30.76
28.39
25.71
23.28
21.48
20.45
20.1
20.15
20.25
20.12
19.54
18.5
17.06
15.4
13.6
11.65
9.44
6.77
3.52
-0.27
-4.37
-8.43
-12.12
-15.23
-17.77
-19.98
-22.31
-25.2
-29.03
-33.85
-39.29
-44.56
-48.54
-50.12
-48.52
-43.6
-35.9
-26.52
-16.8
-7.93
-0.7
4.58
8.01
9.89
10.55
10.26
9.26
7.82
6.25
4.95
4.28
4.48
5.63
7.62
10.21
13.11
16.06
18.86
21.35
23.44
25.01
25.88
25.85
24.69
22.19
18.3
13.19
7.26
1.08
-4.71
-9.66
-13.55
-16.53
-18.98
-21.41
-24.33
-28.14
-33.02
-38.84
-45.12
-50.97
-55.24
-56.7
-54.47
-48.33
-38.85
-27.27
-15.17
-3.99
5.3
12.33
17.25
20.51
22.58
23.81
24.36
24.27
23.65
22.77
22.03
21.86
22.52
23.97
25.85
27.63
28.81
29.11
28.48
27.05
24.97
22.36
19.22
15.54
11.36
6.85
2.28
-2.11
-6.16
-9.93
-13.62
-17.46
-21.6
-25.98
-30.44
-34.81
-39.04
-43.13
-47
-50.29
-52.28
-52.16
-49.33
-43.71
-35.85
-26.64
-17
-7.52
1.51
9.99
17.78
24.52
29.74
33.04
34.24
33.51
31.34
28.36
25.28
22.7
20.99
20.29
20.41
20.96
21.46
21.51
20.9
19.58
17.65
15.28
12.63
9.85
7.02
4.14
1.09
-2.26
-6.01
-10.09
-14.32
-18.41
-22.17
-25.57
-28.85
-32.4
-36.63
-41.66
-47.22
-52.56
-56.6
-58.16
-56.4
-51.03
-42.52
-31.91
-20.52
-9.55
0.16
8.22
14.56
19.26
22.44
24.17
24.6
23.99
22.78
21.48
20.61
20.53
21.31
22.75
24.47
26.05
27.14
27.62
27.53
27.02
26.25
25.25
23.93
22.12
19.68
16.55
12.8
8.58
4.1
-0.46
-4.92
-9.15
-13.04
-16.52
-19.64
-22.55
-25.42
-28.33
-31.04
-32.94
-33.09
-30.5
-24.53
-15.14
-3
10.74
24.78
38.05
49.89
60.05
68.49
75.28
80.43
83.97
86
86.73
86.51
85.65
84.35
82.64
80.45
77.72
74.49
70.98
67.43
63.99
60.57
56.82
52.32
46.71
39.88
32.02
23.53
14.84
6.31
-1.87
-9.65
-17.02
-24.01
-30.64
-36.95
-43.07
-49.11
-55.11
-60.95
-66.28
-70.67
-73.73
-75.26
-75.31
-74.05
-71.71
-68.42
-64.31
-59.58
-54.63
-50.01
-46.26
-43.76
-42.52
-42.19
-42.25
-42.18
-41.63
-40.52
-38.91
-36.96
-34.77
-32.34
-29.64
-26.64
-23.34
-19.83
-16.28
-12.86
-9.68
-6.76
-4.04
-1.45
1.01
3.29
5.25
6.78
7.85
8.54
8.92
9.04
8.82
8.15
7.05
5.76
4.77
4.7
6.12
9.37
14.46
21.1
28.8
36.96
44.89
51.92
57.42
60.88
62.09
61.11
58.25
53.94
48.58
42.48
35.86
28.96
22.07
15.56
9.76
4.86
0.8
-2.71
-6.11
-9.73
-13.7
-17.89
-22
-25.75
-29.05
-32
-34.81
-37.7
-40.81
-44.26
-48.13
-52.41
-56.93
-61.14
-64.23
-65.31
-63.71
-59.31
-52.57
-44.34
-35.52
-26.77
-18.44
-10.66
-3.49
2.96
8.57
13.29
17.23
20.65
23.88
27.26
31.01
35.28
40.1
45.46
51.29
57.46
63.78
70.01
75.89
81.21
85.77
89.44
92.11
93.79
94.54
94.49
93.76
92.36
90.27
87.48
84.18
80.87
78.36
77.46
78.69
81.95
86.39
90.54
92.65
91.12
84.88
73.7
58.25
40.1
21.33
4.03
-10.26
-20.99
-28.7
-34.74
-40.67
-47.78
-56.66
-67.25
-79.03
-91.41
-103.85
-115.94
-127.25
-137.23
-145.17
-150.36
-152.27
-150.76
-146.18
-139.27
-131.02
-122.37
-114.09
-106.68
-100.44
-95.51
-91.95
-89.63
-88.13
-86.73
-84.57
-80.97
-75.92
-70.3
-65.91
-64.98
-69.43
-80.06
-95.99
-114.72
-132.74
-146.68
-154.21
-154.63
-148.63
-137.76
-123.68
-107.76
-91
-74.07
-57.45
-41.4
-26.03
-11.39
2.37
14.87
25.63
34.31
41.03
46.32
50.87
55.22
59.51
63.61
67.3
70.47
72.96
74.32
73.87
70.85
65
56.89
48.02
40.27
35.27
33.79
35.52
39.33
43.78
47.52
49.58
49.33
46.39
40.66
32.25
21.69
9.86
-2.13
-13.22
-22.66
-30.15
-35.8
-39.9
-42.68
-44.28
-44.71
-44.03
-42.46
-40.35
-38.08
-35.89
-33.85
-31.84
-29.72
-27.28
-24.38
-20.86
-16.51
-11.02
-3.93
5.35
17.39
32.55
50.59
70.49
90.54
108.62
122.87
132.09
135.96
134.86
129.43
120.24
107.65
91.95
73.56
53.18
31.67
9.91
-11.42
-31.86
-51.07
-68.68
-84.16
-96.94
-106.63
-113.3
-117.53
-120.35
-122.9
-126.05
-130.12
-134.74
-138.9
-141.17
-139.92
-133.77
-121.97
-104.76
-83.59
-60.81
-39.15
-20.85
-7.12
2.08
7.64
10.64
11.82
11.29
8.84
4.34
-1.83
-8.75
-15.18
-19.94
-22.36
-22.36
-20.38
-17.14
-13.32
-9.41
-5.68
-2.23
0.82
3.25
4.77
5.11
4.25
2.46
0.29
-1.7
-3.18
-4.31
-5.6
-7.68
-10.87
-15.06
-19.64
-23.89
-27.29
-29.7
-31.41
-32.86
-34.43
-36.35
-38.69
-41.42
-44.35
-46.99
-48.49
-47.69
-43.52
-35.47
-23.91
-10.08
4.41
18.21
30.75
42.3
53.56
65.04
76.62
87.48
96.53
102.97
106.68
108.24
108.56
108.47
108.42
108.51
108.63
108.66
108.51
108.09
107.24
105.75
103.49
100.47
96.76
92.41
87.33
81.28
74.04
65.56
56.01
45.68
34.82
23.51
11.72
-0.66
-13.67
-27.25
-41.29
-55.55
-69.64
-82.89
-94.45
-103.47
-109.46
-112.46
-113.1
-112.37
-111.15
-109.96
-108.76
-107.07
-104.21
-99.62
-93.07
-84.66
-74.7
-63.47
-50.99
-36.99
-21.2
-3.63
15.04
33.46
49.99
63.22
72.47
77.87
80.22
80.5
79.56
77.92
75.8
73.21
70.03
66.04
61.07
55.09
48.35
41.33
34.6
28.53
23.11
17.94
12.42
6
-1.49
-9.75
-17.98
-24.98
-29.42
-30.09
-26.2
-17.65
-5.08
10.2
26.52
42.2
55.85
66.59
74.16
78.78
80.99
81.35
80.26
77.77
73.65
67.62
59.61
50.01
39.62
29.44
20.35
12.87
7.06
2.65
-0.79
-3.79
-6.82
-10.29
-14.54
-19.67
-25.5
-31.53
-37.11
-41.73
-45.24
-47.94
-50.36
-52.88
-55.48
-57.6
-58.4
-57.12
-53.46
-47.73
-40.8
-33.82
-27.87
-23.59
-21.01
-19.48
-17.95
-15.24
-10.56
-3.75
4.62
13.48
21.66
28.19
32.57
34.74
34.93
33.5
30.93
27.78
24.71
22.42
21.43
21.95
23.69
25.93
27.76
28.37
27.41
25.11
22.2
19.65
18.24
18.32
19.73
21.9
24.19
26.14
27.64
28.87
30.17
31.76
33.63
35.5
36.96
37.67
37.52
36.62
35.24
33.55
31.58
29.15
26.01
22.04
17.36
12.36
7.57
3.41
-0.03
-3
-6.02
-9.67
-14.48
-20.76
-28.68
-38.23
-49.22
-61.19
-73.36
-84.69
-94.11
-100.86
-104.7
-105.9
-105.09
-102.9
-99.73
-95.76
-91.04
-85.63
-79.71
-73.46
-67.02
-60.45
-53.73
-46.88
-40.07
-33.53
-27.5
-22.09
-17.27
-12.97
-9.13
-5.78
-3.02
-0.9
0.61
1.68
2.59
3.72
5.52
8.51
13.26
20.24
29.68
41.42
54.86
69.07
83.06
96.09
107.77
118.09
127.16
134.93
141.1
145.17
146.74
145.82
142.94
138.92
134.53
130.11
125.47
120.13
113.7
106.26
98.46
91.26
85.53
81.69
79.51
78.21
76.64
73.53
67.75
58.53
45.54
28.94
9.42
-12.08
-34.54
-57.09
-79.16
-100.38
-120.42
-138.89
-155.26
-168.93
-179.45
-186.63
-190.57
-191.59
-190.08
-186.4
-180.87
-173.82
-165.66
-156.95
-148.18
-139.66
-131.34
-122.77
-113.33
-102.44
-89.89
-75.91
-61.14
-46.35
-32.27
-19.33
-7.63
2.92
12.46
21
28.35
34.29
38.74
41.93
44.34
46.51
48.77
51.05
52.9
53.74
53.11
50.92
47.48
43.44
39.62
36.8
35.56
36.12
38.17
40.87
43.04
43.47
41.38
36.56
29.52
21.15
12.47
4.32
-2.75
-8.49
-12.89
-16.08
-18.32
-19.96
-21.33
-22.67
-24.04
-25.31
-26.26
-26.71
-26.63
-26.14
-25.5
-25
-24.94
-25.57
-27.05
-29.43
-32.49
-35.66
-38.08
-38.78
-37.06
-32.77
-26.43
-18.96
-11.32
-4.11
2.67
9.49
17.02
25.85
36.2
47.88
60.28
72.38
82.99
90.91
95.25
95.67
92.59
87.07
80.52
74.31
69.32
65.74
63.08
60.53
57.31
53.04
47.84
42.12
36.35
30.77
25.48
20.57
16.31
13.12
11.4
11.21
12.13
13.41
14.4
14.82
14.86
15.01
15.68
16.97
18.65
20.35
21.79
22.9
23.75
24.38
24.71
24.53
23.68
22.09
19.84
17.13
14.23
11.4
8.94
7.1
5.96
5.36
4.89
4.06
2.55
0.41
-1.93
-3.9
-5.13
-5.61
-5.73
-5.95
-6.56
-7.47
-8.29
-8.56
-8.01
-6.68
-4.86
-2.98
-1.4
-0.27
0.5
1.16
2.01
3.22
4.68
6.1
7.07
7.31
6.72
5.39
3.45
0.96
-2.12
-5.82
-10.08
-14.6
-19
-22.89
-26.07
-28.59
-30.67
-32.49
-34.08
-35.34
-36.11
-36.35
-36.15
-35.73
-35.28
-34.84
-34.28
-33.38
-31.9
-29.75
-27.03
-23.97
-20.86
-17.93
-15.29
-12.93
-10.77
-8.71
-6.65
-4.5
-2.08
0.8
4.3
8.47
13.14
17.91
22.37
26.21
29.42
32.19
34.82
37.41
39.84
41.7
42.47
41.73
39.26
35.07
29.33
22.31
14.27
5.52
-3.62
-12.82
-21.81
-30.5
-38.96
-47.42
-56.09
-65.03
-74.09
-82.96
-91.26
-98.72
-105.24
-110.74
-115.18
-118.43
-120.37
-121.03
-120.65
-119.7
-118.69
-117.96
-117.46
-116.69
-114.81
-110.9
-104.37
-95.19
-84.1
-72.32
-61.18
-51.62
-43.91
-37.71
-32.5
-27.93
-23.98
-20.81
-18.3
-15.84
-12.38
-6.94
0.91
10.8
21.64
32.06
40.86
47.28
51.06
52.35
51.74
50.13
48.66
48.34
49.8
52.92
56.89
60.49
62.66
62.91
61.44
58.94
56.15
53.48
50.87
47.94
44.15
39.07
32.47
24.35
15.05
5.1
-4.75
-13.8
-21.53
-27.78
-32.73
-36.7
-40.03
-42.88
-45.38
-47.72
-50.27
-53.44
-57.27
-61.22
-64.15
-64.79
-62.33
-56.98
-49.87
-42.61
-36.59
-32.57
-30.59
-30.36
-31.46
-33.58
-36.27
-38.92
-40.73
-41.16
-40.18
-38.4
-36.72
-35.81
-35.73
-35.97
-35.82
-34.68
-32.28
-28.54
-23.22
-15.84
-5.77
7.39
23.48
41.71
60.81
79.43
96.5
111.36
123.71
133.34
139.97
143.21
142.74
138.53
131.1
121.49
111.03
100.99
92.33
85.58
80.89
78.14
77.04
77.18
78.09
79.28
80.31
80.9
80.89
80.15
78.49
75.68
71.49
65.87
58.97
51.06
42.41
33.14
23.18
12.37
0.62
-12.01
-25.34
-39.14
-53.2
-67.16
-80.37
-91.8
-100.29
-104.99
-105.88
-103.95
-100.96
-98.87
-99.1
-102.26
-108.13
-116.17
-125.88
-136.94
-149
-161.32
-172.65
-181.44
-186.35
-186.82
-183.39
-177.49
-170.99
-165.52
-162.03
-160.5
-160.01
-159.04
-155.89
-149.19
-138.35
-123.73
-106.55
-88.54
-71.39
-56.34
-44.02
-34.53
-27.67
-23.22
-21.02
-21.05
-23.26
-27.45
-33
-38.67
-42.57
-42.44
-36.22
-22.73
-2.23
23.65
52.31
80.99
107.43
130.12
148.3
161.68
170.3
174.48
174.94
172.68
168.83
164.41
160.11
156.23
152.79
149.58
146.25
142.24
136.94
129.73
120.29
108.82
96.09
83.26
71.6
62.07
55.12
50.6
47.88
45.98
43.92
40.93
36.71
31.51
26
20.99
17.13
14.69
13.42
12.59
11.23
8.31
3.12
-4.28
-12.78
-20.23
-24.08
-22.2
-13.82
0.09
17.23
34.81
50.67
63.79
74.26
82.68
89.59
95.08
98.9
100.84
101.04
100.08
98.86
98.17
98.41
99.41
100.47
100.71
99.4
96.26
91.47
85.48
78.7
71.28
63.06
53.82
43.52
32.55
21.63
11.64
3.26
-3.25
-8.15
-12.05
-15.71
-19.68
-24.2
-29.21
-34.46
-39.86
-45.51
-51.71
-58.66
-66.14
-73.34
-78.94
-81.45
-79.68
-73.14
-62.23
-48.07
-32.19
-16.14
-1.13
12.11
23.32
32.53
39.91
45.55
49.48
51.72
52.36
51.66
49.95
47.63
44.97
42.05
38.83
35.16
30.9
26
20.5
14.51
8.19
1.81
-4.36
-10
-14.88
-18.88
-22.01
-24.42
-26.32
-27.95
-29.66
-31.84
-34.93
-39.29
-44.93
-51.43
-57.95
-63.5
-67.26
-68.99
-69.05
-68.15
-67.03
-66.05
-65.12
-63.82
-61.6
-58
-52.65
-45.3
-35.82
-24.24
-10.9
3.47
17.78
30.85
41.64
49.51
54.39
56.59
56.6
54.79
51.25
45.79
38.21
28.55
17.35
5.62
-5.44
-14.8
-21.84
-26.38
-28.44
-28.03
-25.07
-19.56
-11.8
-2.56
7.03
15.82
23.06
28.66
33.16
37.38
42.08
47.58
53.8
60.4
67.09
73.76
80.43
87.02
93.2
98.38
101.96
103.68
103.74
102.74
101.32
99.89
98.4
96.5
93.73
89.76
84.47
77.89
70.09
61.19
51.47
41.43
31.79
23.3
16.47
11.26
6.96
2.32
-4.13
-13.55
-26.35
-41.88
-58.54
-74.16
-86.66
-94.52
-96.99
-94.02
-85.94
-73.26
-56.6
-36.81
-15.04
7.34
28.96
48.79
66.27
81.24
93.78
104.06
112.29
118.86
124.25
128.85
132.68
135.03
134.59
129.83
119.67
104.11
84.31
62.33
40.38
20.11
2.24
-13.34
-27.06
-39.13
-49.29
-56.96
-61.7
-63.68
-63.74
-63.11
-62.71
-62.63
-61.98
-59.35
-53.58
-44.4
-32.69
-20.15
-8.63
0.51
6.72
10.17
11.36
10.89
9.25
6.93
4.41
2.16
0.45
-0.76
-1.77
-3.02
-4.9
-7.64
-11.34
-16.08
-21.9
-28.7
-36.15
-43.64
-50.45
-56.07
-60.49
-64.22
-68.06
-72.66
-78.17
-84.07
-89.39
-93.09
-94.41
-93.18
-89.76
-84.96
-79.71
-74.9
-71.12
-68.62
-67.3
-66.85
-66.83
-66.82
-66.52
-65.79
-64.56
-62.81
-60.48
-57.44
-53.57
-48.8
-43.2
-36.94
-30.25
-23.27
-16.13
-8.87
-1.61
5.54
12.49
19.29
26.14
33.27
40.71
48.12
54.82
59.96
62.94
63.57
62.17
59.34
55.7
51.61
47.15
42.22
36.7
30.54
23.8
16.66
9.39
2.36
-3.98
-9.17
-12.83
-14.83
-15.38
-14.98
-14.3
-13.98
-14.57
-16.43
-19.8
-24.8
-31.38
-39.23
-47.83
-56.4
-64.17
-70.56
-75.31
-78.55
-80.7
-82.26
-83.63
-84.91
-85.81
-85.68
-83.71
-79.19
-71.81
-61.75
-49.7
-36.61
-23.49
-11.17
-0.2
9.1
16.57
22.11
25.67
27.33
27.34
26.2
24.6
23.26
22.73
23.22
24.54
26.2
27.73
28.83
29.55
30.16
30.92
31.82
32.56
32.62
31.49
28.98
25.2
20.56
15.54
10.55
5.79
1.23
-3.32
-8.19
-13.7
-20.16
-27.66
-35.96
-44.43
-52.13
-58
-61.16
-61.14
-58.07
-52.58
-45.66
-38.37
-31.67
-26.2
-22.27
-19.86
-18.78
-18.73
-19.42
-20.6
-22.02
-23.43
-24.58
-25.22
-25.24
-24.7
-23.79
-22.82
-22.09
-21.78
-22
-22.75
-24.03
-25.87
-28.28
-31.25
-34.68
-38.35
-42.06
-45.59
-48.89
-52.03
-55.25
-58.83
-62.97
-67.65
-72.55
-77.02
-80.19
-81.12
-79.06
-73.69
-65.21
-54.31
-42.02
-29.33
-17.01
-5.45
5.19
14.82
23.25
30.15
35.22
38.42
40.04
40.65
40.88
41.14
41.55
41.96
42.18
42.12
41.91
41.75
41.77
41.88
41.75
40.91
38.96
35.71
31.28
26.02
20.41
14.84
9.54
4.43
-0.79
-6.59
-13.39
-21.29
-29.91
-38.27
-44.93
-48.31
-47.19
-41.07
-30.38
-16.37
-0.8
14.58
28.34
39.62
48.14
54.03
57.62
59.28
59.36
58.24
56.38
54.34
52.7
51.86
51.86
52.43
53.02
53.13
52.47
51.07
49.18
47.08
44.9
42.55
39.75
36.17
31.61
26.05
19.71
12.96
6.17
-0.37
-6.6
-12.69
-19.02
-25.91
-33.55
-41.79
-50.04
-57.39
-62.77
-65.3
-64.47
-60.26
-53.06
-43.52
-32.33
-20.16
-7.65
4.59
15.92
25.76
33.62
39.26
42.62
43.94
43.68
42.43
40.87
39.58
38.95
39.07
39.74
40.6
41.32
41.73
41.76
41.49
40.95
40.07
38.6
36.21
32.55
27.4
20.87
13.36
5.52
-1.97
-8.65
-14.44
-19.65
-24.81
-30.45
-36.82
-43.84
-51.02
-57.57
-62.5
-64.83
-63.76
-58.94
-50.58
-39.46
-26.75
-13.69
-1.36
9.52
18.54
25.5
30.27
32.78
33.14
31.74
29.36
26.99
25.54
25.6
27.21
29.9
32.91
35.47
37.1
37.73
37.57
37.04
36.55
36.28
36.15
35.85
34.97
33.11
30.07
25.79
20.39
14.07
7.11
-0.21
-7.57
-14.69
-21.39
-27.65
-33.57
-39.21
-44.37
-48.48
-50.69
-50.18
-46.49
-39.81
-31
-21.29
-11.93
-3.82
2.68
7.65
11.39
14.13
15.95
16.85
16.91
16.46
16.09
16.43
17.91
20.54
23.9
27.39
30.46
32.85
34.51
35.52
35.81
35.17
33.34
30.26
26.15
21.55
17.1
13.24
10.09
7.37
4.52
0.87
-4.11
-10.65
-18.54
-27.05
-34.99
-40.95
-43.63
-42.23
-36.68
-27.71
