0
0
0
0
0
0
0
0
0
0
0
0.01
0.01
0
-0.03
-0.05
-0.05
0
0.13
0.36
0.66
1.01
1.37
1.72
2.06
2.4
2.79
3.24
3.8
4.42
5.06
5.66
6.2
6.68
7.15
7.68
8.31
9.14
10.09
11.04
11.88
12.56
13.14
13.76
14.65
15.96
17.91
20.32
22.9
25.38
27.58
29.57
31.68
34.32
37.81
42.54
48.15
54.1
59.83
64.97
69.58
74.14
79.34
85.71
93.76
103
112.62
121.73
129.77
136.75
143.3
150.75
157.77
166.64
177.95
191.79
206.97
220.57
228.25
225.36
208.53
176.87
132.76
80.05
23.07
-34.94
-92.44
-149.16
-205.23
-260.37
-313.74
-363.86
-409.81
-450.87
-486.44
-515.65
-537.11
-549.06
-549.76
-538.11
-513.9
-478.31
-433.45
-381.96
-326.46
-269.21
-211.93
-155.89
-102.1
-51.44
-4.88
36.7
72.64
102.68
126.95
145.97
160.43
171.05
178.46
183.05
185.1
184.85
182.58
178.62
173.4
167.31
160.71
153.84
146.85
139.8
132.75
125.73
118.8
112.05
105.53
99.3
93.4
87.84
82.64
77.79
73.31
69.2
65.48
62.16
59.24
56.73
54.6
52.84
51.43
50.29
49.33
48.45
47.49
46.27
44.63
42.41
39.48
35.78
31.31
26.08
20.25
14
7.55
1.18
-4.87
-10.37
-15.12
-19.01
-21.96
-23.98
-25.11
-25.44
-25.11
-24.23
-22.92
-21.28
-19.41
-17.33
-15.09
-12.73
-10.27
-7.74
-5.13
-2.46
0.27
3.07
5.93
8.9
11.92
15
18.11
21.29
24.55
27.92
31.45
35.17
39.17
43.36
47.69
52.15
56.7
61.36
66.13
71.04
76.11
81.44
86.88
92.33
97.75
103.13
108.48
113.8
119.13
124.51
130.02
135.4
140.42
144.88
148.55
151.14
152.28
151.45
147.95
143.07
137.26
130.82
123.98
116.87
109.66
102.46
95.43
88.71
82.49
76.62
71.02
65.67
60.52
55.56
50.77
46.17
41.79
37.71
33.81
30.03
26.38
22.88
19.58
16.57
13.89
11.62
9.82
8.4
7.26
6.33
5.56
4.87
4.22
3.58
2.96
2.39
1.83
1.27
0.73
0.22
-0.24
-0.65
-0.99
-1.29
-1.53
-1.76
-2
-2.26
-2.55
-2.88
-3.23
-3.61
-3.98
-4.35
-4.71
-5.04
-5.34
-5.62
-5.87
-6.1
-6.32
-6.53
-6.73
-6.92
-7.07
-7.19
-7.27
-7.3
-7.27
-7.17
-7.01
-6.81
-6.57
-6.31
-6.06
-5.83
-5.63
-5.49
-5.4
-5.37
-5.4
-5.46
-5.54
-5.6
-5.65
-5.68
-5.72
-5.81
-6
-6.3
-6.75
-7.33
-7.99
-8.72
-9.49
-10.3
-11.16
-12.07
-13
-13.9
-14.7
-15.32
-15.74
-15.96
-16.08
-16.23
-16.55
-17.12
-17.98
-19.06
-20.29
-21.6
-23.01
-24.65
-26.72
-29.38
-32.68
-36.45
-40.4
-44.15
-47.45
-50.26
-52.9
-55.82
-59.5
-64.21
-69.83
-75.94
-82
-87.63
-92.86
-98.2
-104.45
-112.34
-122.25
-133.97
-146.89
-160.22
-173.36
-186.18
-199
-212.46
-227.46
-244.99
-266.05
-291.1
-319.4
-348.45
-374.07
-391.37
-396.38
-387.56
-366.46
-337.13
-304.49
-272.62
-243.71
-218.12
-195.22
-174.43
-155.62
-138.96
-124.42
-111.39
-98.81
-85.75
-71.89
-57.77
-44.55
-33.35
-24.61
-17.86
-12.06
-6.2
0.07
6.22
11.16
13.88
14.09
12.39
10.05
8.47
8.53
10.46
13.76
17.62
21.25
24.1
25.97
26.85
26.92
26.38
25.46
24.33
23.16
21.97
20.67
19.11
17.02
14.19
10.51
6.11
1.4
-2.92
-5.97
-6.92
-5.13
-0.48
6.58
15.07
23.7
31.2
36.72
39.99
41.37
41.62
41.61
42
43.02
44.58
46.35
47.99
49.28
50.16
50.67
50.83
50.7
50.36
49.88
49.33
48.68
47.78
46.31
44.03
40.82
36.78
32.32
27.91
23.98
20.7
18.11
16.03
14.33
12.89
11.68
10.65
9.75
8.88
7.99
7.03
5.98
4.82
3.59
2.33
1.11
-0.07
-1.29
-2.77
-4.81
-7.6
-11.2
-15.42
-19.8
-23.74
-26.51
-27.46
-26.11
-22.35
-16.53
-9.39
-1.89
5.09
11.05
15.83
19.57
22.48
24.65
26.06
26.64
26.36
25.42
24.11
22.78
21.7
21
20.71
20.78
21.19
21.87
22.69
23.46
24.03
24.26
24.22
24.08
24.03
24.19
24.43
24.45
23.94
22.77
21.08
19.16
17.37
15.85
14.57
13.33
11.91
10.17
8.1
5.73
3.07
0.2
-2.8
-5.74
-8.38
-10.48
-12
-13.07
-14.02
-15.19
-16.87
-19.15
-21.76
-24.26
-26.04
-26.55
-25.45
-22.66
-18.33
-12.87
-6.75
-0.57
5.2
10.08
13.84
16.43
18.01
18.84
19.21
19.33
19.35
19.39
19.63
20.26
21.29
22.57
23.85
24.79
25.31
25.39
25.18
24.76
24.11
23.1
21.68
19.85
17.77
15.65
13.62
11.69
9.79
7.83
5.82
3.88
2.18
0.78
-0.36
-1.41
-2.61
-4.07
-5.75
-7.46
-8.99
-10.2
-11.2
-12.12
-13.21
-14.6
-16.3
-18.34
-20.68
-23.15
-25.36
-26.61
-26.07
-23.11
-17.65
-10.3
-2.16
5.59
12.1
17.11
20.76
23.4
25.26
26.35
26.64
26.11
24.88
23.18
21.25
19.28
17.38
15.64
14.19
13.09
12.36
11.86
11.38
10.72
9.79
8.66
7.47
6.34
5.3
4.28
3.2
2.1
1.08
0.28
-0.34
-0.99
-2.04
-3.74
-6.1
-8.78
-11.21
-12.92
-13.77
-14.06
-14.38
-15.47
-17.91
-21.97
-27.44
-33.53
-38.96
-42.28
-42.38
-38.93
-32.62
-24.9
-17.46
-11.57
-7.67
-5.42
-4.02
-2.6
-0.67
1.86
4.71
7.44
9.56
10.63
10.31
8.54
5.49
1.61
-2.6
-6.77
-10.82
-14.98
-19.69
-25.44
-32.48
-40.71
-49.59
-58.42
-66.62
-74.07
-81.29
-89.2
-98.76
-110.48
-124.14
-138.97
-153.89
-168.11
-181.48
-194.52
-208.2
-223.71
-242.18
-264.53
-290.92
-320.19
-349.45
-374.33
-390.12
-393.37
-383.19
-361.68
-333.02
-301.78
-271.39
-243.47
-218.14
-194.92
-173.56
-154.24
-137.17
-122.24
-108.79
-95.89
-82.93
-69.87
-57.24
-45.92
-36.56
-29.3
-23.64
-18.72
-13.63
-7.84
-1.33
5.42
11.82
17.42
22.19
26.53
30.96
35.93
41.52
47.44
53.18
58.3
62.75
66.79
71.04
76.05
82.11
89.04
96.29
103.31
109.77
115.88
122.27
129.77
138.97
149.94
162.18
174.88
187.31
199.15
210.62
222.36
235.22
250.08
267.76
288.76
312.82
338.37
362.32
380.55
389.19
386.1
371.78
349.32
323.17
297.37
274.43
254.94
238.33
223.78
210.86
199.54
189.68
180.69
171.5
161.09
149.03
135.81
122.69
111.24
102.51
96.69
92.86
89.37
84.52
77.15
67.2
55.65
44.18
34.49
27.63
23.72
21.98
21.19
20.21
18.36
15.62
12.37
9.11
6.15
3.37
0.56
-2.43
-5.41
-7.9
-9.37
-9.59
-8.93
-8.2
-8.41
-10.3
-14
-19.01
-24.33
-28.79
-31.39
-31.52
-29.06
-24.39
-18.24
-11.5
-5.02
0.55
4.84
7.73
9.3
9.79
9.64
9.35
9.47
10.33
11.92
13.88
15.63
16.68
16.84
16.28
15.38
14.47
13.74
13.15
12.56
11.88
11.08
10.23
9.3
8.25
7.03
5.65
4.21
2.8
1.41
-0.11
-1.92
-4.05
-6.37
-8.61
-10.54
-12.16
-13.61
-15.17
-17.02
-19.17
-21.36
-23.25
-24.4
-24.38
-22.89
-19.83
-15.43
-10.24
-4.98
-0.33
3.37
6.12
8.19
9.87
11.22
12.03
11.99
11.02
9.39
7.7
6.59
6.37
6.74
6.93
6.01
3.39
-0.85
-5.98
-10.96
-14.84
-17.1
-17.86
-17.53
-16.76
-15.93
-15.1
-14.04
-12.41
-10.25
-8.02
-6.71
-7.49
-11.21
-18.09
-27.55
-38.31
-48.53
-56.31
-59.96
-58.43
-51.67
-40.84
-28.16
-16.29
-7.46
-2.64
-1.21
-1.3
-0.64
2.51
8.8
17.57
27.45
36.82
44.32
49.15
51.02
50.02
46.46
40.91
34.14
27.15
20.97
16.38
13.69
12.57
12.16
11.39
9.39
5.84
1.07
-4.1
-8.69
-11.87
-13.26
-13
-11.62
-9.85
-8.42
-7.78
-8.09
-9.19
-10.59
-11.7
-11.97
-10.98
-8.69
-5.41
-1.77
1.55
3.96
5.28
5.79
6.12
7.05
9.16
12.67
17.31
22.43
27.15
30.63
32.26
31.73
29.22
25.24
20.54
15.95
12.14
9.54
8.18
7.75
7.72
7.53
6.74
5.14
2.81
-0.01
-2.93
-5.58
-7.67
-9.1
-9.91
-10.39
-10.88
-11.69
-13.05
-15.04
-17.63
-20.76
-24.35
-28.18
-31.89
-34.93
-36.58
-36.19
-33.45
-28.57
-22.21
-15.39
-9.01
-3.62
0.73
4.32
7.48
10.39
12.95
14.92
16.07
16.41
16.09
15.39
14.52
13.54
12.52
11.54
10.7
10.1
9.8
9.74
9.77
9.82
9.79
9.65
9.35
8.83
8.08
7.09
6
4.9
3.88
2.93
1.97
0.81
-0.65
-2.38
-4.23
-5.99
-7.54
-8.86
-10.18
-11.77
-13.87
-16.59
-19.82
-23.3
-26.59
-29.16
-30.5
-30.15
-27.88
-23.79
-18.33
-12.19
-6.12
-0.69
3.78
7.27
9.93
11.95
13.49
14.65
15.54
16.28
16.99
17.75
18.53
19.21
19.63
19.75
19.65
19.58
19.73
20.15
20.69
21.02
20.84
19.96
18.38
16.27
13.87
11.48
9.25
7.26
5.42
3.46
1.11
-1.88
-5.54
-9.59
-13.54
-16.84
-19.15
-20.44
-21.12
-21.68
-22.58
-23.97
-25.67
-27.39
-28.93
-30.39
-32.13
-34.47
-37.32
-40
-41.36
-40.28
-36.17
-29.41
-21.23
-13.31
-7.24
-3.9
-3.25
-4.43
-6.13
-7.04
-6.41
-4.26
-1.42
0.85
1.29
-0.96
-6.07
-13.37
-21.21
-26.94
-27.28
-19.25
-1.46
24.5
53.81
79.53
95.1
97
86.21
67.61
47.73
31.82
22.08
17.65
16.08
15.13
13.82
12.3
11.02
10.07
9.02
7.43
5.4
3.71
3.32
4.65
7.14
9.44
10.07
8.11
3.7
-2.03
-7.43
-10.88
-11.36
-8.63
-3.28
3.55
10.55
16.67
21.44
24.96
27.74
30.28
32.79
34.91
35.93
35.11
32.08
27.03
20.66
13.9
7.61
2.24
-2.2
-6.01
-9.57
-13.14
-16.73
-20.19
-23.36
-26.15
-28.64
-30.98
-33.26
-35.4
-37.12
-38.07
-37.99
-36.84
-34.95
-32.79
-30.81
-29.28
-28.21
-27.48
-26.89
-26.41
-26.14
-26.23
-26.72
-27.5
-28.32
-28.93
-29.21
-29.27
-29.43
-30.03
-31.29
-33.04
-34.76
-35.67
-35
-32.3
-27.53
-21.23
-14.2
-7.32
-1.28
3.53
7.02
9.37
10.93
12.13
13.35
14.79
16.49
18.23
19.68
20.54
20.68
20.11
19.07
17.81
16.56
15.49
14.7
14.19
13.97
13.94
13.96
13.79
13.17
11.96
10.15
7.94
5.67
3.69
2.26
1.43
1.09
1.01
1.07
1.17
1.4
1.79
2.3
2.77
2.96
2.69
1.91
0.67
-0.88
-2.6
-4.32
-5.92
-7.27
-8.29
-8.95
-9.32
-9.65
-10.24
-11.26
-12.65
-13.98
-14.52
-13.54
-10.62
-5.89
-0.13
5.56
10.1
12.92
14.11
14.33
14.4
14.92
16.02
17.43
18.67
19.33
19.25
18.58
17.64
16.75
16.18
16.15
16.79
18.08
19.82
21.47
22.33
21.84
19.73
16.41
12.78
9.88
8.41
8.33
8.87
8.87
7.44
4.44
0.46
-3.4
-6.2
-7.61
-8
-8.2
-9.05
-10.96
-13.72
-16.58
-18.54
-18.77
-16.88
-13.13
-8.41
-3.98
-1.11
-0.65
-2.8
-6.96
-12.01
-16.6
-19.58
-20.25
-18.38
-14.26
-8.49
-1.9
4.65
10.32
14.39
16.43
16.28
14.17
10.69
6.67
2.98
0.39
-0.55
0.42
3.3
7.76
13.2
18.75
23.51
26.67
27.84
27.07
24.7
21.23
16.93
11.89
6.08
-0.46
-7.43
-14.22
-20.14
-24.69
-27.83
-30.08
-32.38
-35.78
-41.04
-48.23
-56.65
-65.06
-72.1
-76.76
-78.75
-78.56
-77.25
-76.18
-76.49
-78.8
-82.97
-87.91
-91.8
-92.53
-88.23
-77.98
-62.17
-42.42
-21.31
-1.65
14.25
25.1
30.88
32.73
32.53
32.21
33.12
35.71
39.51
43.56
47
49.44
51.05
52.26
53.39
54.39
54.92
54.57
53.17
50.78
47.48
43.16
37.49
29.96
20.38
9.08
-3.05
-14.69
-24.62
-32.04
-36.83
-39.44
-40.74
-41.63
-42.75
-44.39
-46.43
-48.54
-50.29
-51.33
-51.31
-50.02
-47.34
-43.39
-38.62
-33.79
-29.63
-26.59
-24.51
-22.67
-20.09
-15.89
-9.72
-1.72
7.59
17.66
28.01
38.3
48.04
56.65
63.48
68.12
70.64
71.73
72.42
73.62
75.69
78.05
79.36
78.07
73.05
64.21
52.62
40.13
28.76
20.01
14.53
12.13
12.12
13.61
15.72
17.71
18.95
19
17.6
14.84
10.98
6.5
1.86
-2.51
-6.27
-9.15
-11.06
-12.11
-12.6
-12.95
-13.6
-14.76
-16.48
-18.57
-20.86
-23.17
-25.38
-27.31
-28.72
-29.37
-28.98
-27.49
-25.02
-21.86
-18.35
-14.76
-11.24
-7.84
-4.47
-1.14
2.15
5.31
8.22
10.69
12.57
13.8
14.31
14.17
13.5
12.4
11.02
9.56
8.22
7.22
6.75
6.86
7.43
8.12
8.48
8.12
6.85
4.82
2.41
0.06
-1.97
-3.69
-5.37
-7.32
-9.69
-12.43
-15.34
-18.24
-21.18
-24.39
-28.03
-32
-35.8
-38.62
-39.64
-38.39
-34.94
-29.81
-23.81
-17.66
-11.87
-6.63
-1.99
2.07
5.51
8.26
10.3
11.73
12.68
13.34
13.77
13.95
13.75
13.08
11.97
10.66
9.51
8.89
8.98
9.69
10.72
11.61
11.95
11.56
10.5
9.05
7.52
6.11
4.86
3.65
2.3
0.62
-1.52
-4.2
-7.44
-11.16
-15.05
-18.6
-21.14
-22.06
-21.06
-18.25
-14.13
-9.34
-4.54
-0.07
3.88
7.31
10.18
12.52
14.36
15.79
17.04
18.37
19.96
21.81
23.67
25.15
25.86
25.5
24.03
21.7
19.01
16.59
14.94
14.33
14.62
15.3
15.7
15.2
13.55
10.94
8.04
5.67
4.46
4.63
5.76
6.98
7.36
6.23
3.43
-0.63
-5.19
-9.35
-12.21
-13
-11.31
-7.39
-2.21
2.69
5.97
7.09
6.68
6.06
6.4
7.98
10.05
11.4
11.35
10.29
9.42
10
12.4
15.74
18.36
18.79
16.48
12.05
6.67
1.33
-3.56
-8.09
-12.42
-16.23
-18.67
-18.87
-16.46
-11.88
-6.37
-1.4
1.85
2.8
1.45
-1.95
-7.28
-14.49
-23.29
-32.83
-41.42
-46.81
-47.03
-41.21
-30.23
-16.58
-3.48
6.5
12.16
13.99
13.39
11.6
9.09
5.71
1.31
-3.46
-7.12
-8.12
-5.7
-0.47
5.73
10.76
12.96
11.85
8.02
2.88
-2.01
-5.29
-6.16
-4.65
-1.56
1.73
3.73
3.43
0.73
-3.76
-8.83
-13.27
-16.31
-17.73
-17.85
-17.35
-17.08
-17.81
-20.07
-23.8
-28.28
-32.25
-34.25
-33.27
-29.06
-22.3
-14.26
-6.36
0.3
5.27
8.62
10.85
12.54
14.04
15.55
17.04
18.47
19.73
20.69
21.16
20.96
20.09
18.71
17.24
16.17
15.88
16.37
17.31
18.09
18.1
17.05
15.01
12.35
9.52
6.92
4.67
2.72
0.92
-0.87
-2.67
-4.48
-6.28
-8.13
-10.02
-11.95
-13.81
-15.44
-16.78
-17.95
-19.32
-21.35
-24.38
-28.34
-32.69
-36.5
-38.73
-38.62
-35.91
-30.93
-24.39
-17.15
-9.98
-3.44
2.2
6.79
10.32
12.88
14.66
15.89
16.82
17.58
18.16
18.53
18.59
18.33
17.92
17.47
17.09
16.83
16.64
16.42
16.03
15.35
14.26
12.83
11.12
9.27
7.47
5.84
4.36
2.95
1.49
-0.09
-1.76
-3.45
-5.02
-6.35
-7.4
-8.19
-8.83
-9.46
-10.25
-11.3
-12.7
-14.37
-16.19
-18.01
-19.72
-21.39
-23.26
-25.67
-28.82
-32.62
-36.5
-39.61
-41.02
-40.01
-36.36
-30.36
-22.72
-14.29
-5.92
1.76
8.34
13.7
17.92
21.25
23.96
26.28
28.35
30.22
31.86
33.15
34.03
34.49
34.58
34.39
34.01
33.47
32.76
31.9
30.94
29.97
29.04
28.13
27.05
25.55
23.5
20.97
18.24
15.71
13.7
12.37
11.6
11.15
10.67
9.84
8.49
6.54
4.13
1.51
-1.03
-3.25
-5.05
-6.46
-7.63
-8.84
-10.42
-12.72
-16.02
-20.31
-25.19
-29.83
-33.25
-34.56
-33.42
-30.12
-25.47
-20.44
-15.75
-11.62
-7.88
-4.2
-0.39
3.41
6.81
9.27
10.37
9.99
8.28
5.66
2.67
-0.2
-2.56
-4.22
-5.14
-5.41
-5.21
-4.84
-4.6
-4.82
-5.72
-7.31
-9.35
-11.38
-12.93
-13.73
-13.79
-13.37
-12.86
-12.55
-12.53
-12.79
-13.28
-14.03
-15.12
-16.55
-18.24
-20
-21.61
-22.99
-24.2
-25.49
-27.15
-29.38
-32.16
-35.22
-37.98
-39.73
-39.75
-37.55
-33.07
-26.71
-19.2
-11.45
-4.27
1.88
7.08
11.89
17.13
23.51
31.16
39.48
47.34
53.62
57.64
59.55
60.07
60.1
60.18
60.27
59.94
58.73
56.5
53.49
50.2
47.04
44.14
41.43
38.7
35.79
32.65
29.33
25.93
22.53
19.13
15.67
12.07
8.23
4.24
0.33
-3.07
-5.54
-6.82
-7.06
-6.8
-6.8
-7.89
-10.56
-14.84
-20.24
-25.9
-30.83
-34.18
-35.43
-34.56
-31.97
-28.29
-24.14
-19.96
-16.02
-12.46
-9.47
-7.27
-6.07
-5.92
-6.7
-8.16
-9.95
-11.7
-13.11
-13.89
-13.84
-12.91
-11.26
-9.26
-7.37
-5.92
-5.04
-4.6
-4.38
-4.27
-4.41
-5.08
-6.56
-9
-12.17
-15.55
-18.48
-20.26
-20.5
-19.24
-16.92
-14.29
-12.17
-11.13
-11.36
-12.62
-14.34
-15.87
-16.74
-16.74
-15.96
-14.75
-13.61
-13.01
-13.31
-14.58
-16.51
-18.53
-19.87
-19.86
-18.06
-14.36
-9.01
-2.57
4.33
11
16.78
21.15
23.81
24.75
24.26
22.85
21.04
19.2
17.32
15.04
11.85
7.36
1.48
-5.37
-12.38
-18.61
-23.17
-25.57
-25.79
-24.33
-22.16
-20.38
-19.87
-20.95
-23.17
-25.31
-25.85
-23.37
-17.07
-7.09
5.44
18.79
31.02
40.44
46.04
47.67
45.98
42.2
37.61
33.15
29.17
25.34
21.07
15.92
9.91
3.61
-1.99
-5.94
-7.59
-6.89
-4.3
-0.49
3.82
8.14
12.26
16.14
19.79
23.24
26.43
29.3
31.76
33.77
35.28
36.16
36.25
35.36
33.37
30.38
26.68
22.79
19.21
16.29
14.16
12.72
11.69
10.74
9.64
8.19
6.31
3.98
1.28
-1.56
-4.29
-6.65
-8.5
-9.89
-11.01
-12.06
-13.15
-14.24
-15.13
-15.64
-15.67
-15.28
-14.67
-14.08
-13.83
-14.24
-15.61
-18.02
-21.21
-24.46
-26.74
-27.02
-24.73
-19.98
-13.52
-6.45
0.32
6.29
11.43
15.96
20.06
23.65
26.38
27.9
27.96
26.63
24.34
21.68
19.29
17.56
16.56
16.15
16.02
15.95
15.77
15.43
14.82
13.81
12.18
9.88
7.03
3.94
1
-1.52
-3.52
-5.13
-6.57
-8.1
-9.92
-12.14
-14.81
-17.9
-21.3
-24.78
-28.08
-30.93
-33.15
-34.71
-35.79
-36.68
-37.75
-39.31
-41.42
-43.84
-46.01
-47.22
-46.91
-44.81
-41.13
-36.46
-31.52
-26.91
-22.89
-19.32
-15.88
-12.31
-8.65
-5.29
-2.76
-1.44
-1.24
-1.6
-1.56
-0.29
2.53
6.63
11.27
15.67
19.26
21.84
23.46
24.27
24.33
23.7
22.49
20.95
19.4
18.08
16.98
15.79
14.11
11.61
8.25
4.26
0.09
-3.84
-7.18
-9.77
-11.62
-12.88
-13.75
-14.55
-15.67
-17.53
-20.51
-24.63
-29.51
-34.32
-37.99
-39.49
-38.19
-34.18
-28.12
-21.12
-14.25
-8.32
-3.61
0.04
3.09
6.08
9.37
13.12
17.09
20.79
23.66
25.28
25.55
24.76
23.45
22.28
21.76
22.07
23.09
24.41
25.55
26.18
26.17
25.61
24.7
23.59
22.28
20.66
18.6
16.06
13.15
10.07
7.04
4.16
1.43
-1.15
-3.6
-5.97
-8.35
-10.8
-13.41
-16.12
-18.79
-21.25
-23.46
-25.64
-28.19
-31.46
-35.53
-40.02
-44.11
-46.81
-47.23
-44.91
-39.86
-32.59
-23.83
-14.4
-4.99
3.97
12.16
19.47
25.81
31.16
35.46
38.71
40.87
41.94
42.05
41.37
40.14
38.61
36.97
35.25
33.41
31.33
28.98
26.44
23.87
21.49
19.36
17.41
15.51
13.57
11.66
9.95
8.69
8.03
7.88
8
8.01
7.54
6.34
4.34
1.6
-1.68
-5.23
-8.81
-12.18
-15.2
-17.9
-20.39
-22.83
-25.29
-27.75
-30.08
-32.21
-34.18
-36.2
-38.59
-41.47
-44.62
-47.33
-48.66
-47.7
-44.04
-37.91
-30.07
-21.53
-13.18
-5.67
0.69
5.8
9.71
12.5
14.3
15.34
15.9
16.3
16.85
17.77
19.3
21.63
24.83
28.8
33.27
37.76
41.7
44.67
46.43
47
46.68
45.84
44.8
43.7
42.47
40.9
38.75
35.89
32.34
28.28
23.93
19.54
15.27
11.28
7.7
4.6
1.99
-0.21
-2.12
-3.78
-5.2
-6.42
-7.62
-9.21
-11.68
-15.43
-20.47
-26.26
-31.86
-36.23
-38.51
-38.36
-35.99
-31.96
-26.96
-21.63
-16.42
-11.54
-7.09
-3.03
0.69
4.15
7.35
10.19
12.52
14.19
15.18
15.58
15.64
15.62
15.66
15.81
15.92
15.8
15.24
14.13
12.48
10.47
8.42
6.76
5.91
6
6.84
7.87
8.38
7.78
5.88
2.96
-0.43
-3.67
-6.4
-8.56
-10.28
-11.68
-12.72
-13.27
-13.25
-12.85
-12.53
-12.9
-14.48
-17.46
-21.67
-26.63
-31.75
-36.36
-39.91
-41.86
-41.82
-39.57
-35.21
-29.2
-22.27
-15.25
-8.88
-3.59
0.52
3.53
5.64
7.06
7.94
8.4
8.62
8.83
9.26
10.05
11.18
12.41
13.38
13.76
13.42
12.43
11.05
9.58
8.24
7.09
5.98
4.71
3.18
1.32
-0.79
-3.02
-5.25
-7.32
-9.14
-10.62
-11.8
-12.79
-13.9
-15.43
-17.66
-20.68
-24.27
-27.92
-30.93
-32.57
-32.23
-29.71
-25.2
-19.21
-12.5
-5.77
0.48
6.03
10.86
15.11
18.85
22.03
24.47
25.92
26.24
25.55
24.13
22.38
20.66
19.18
17.94
16.82
15.67
14.39
12.96
11.46
10.06
8.9
8.02
7.27
6.4
5.1
3.18
0.71
-1.98
-4.48
-6.47
-7.89
-8.91
-9.87
-11.06
-12.7
-14.92
-17.73
-21.07
-24.65
-27.9
-30.01
-30.15
-27.83
-23.11
-16.64
-9.45
-2.69
2.92
7.14
10.21
12.67
14.91
17.1
19.11
20.66
21.45
21.44
20.66
19.35
17.77
16.11
14.55
13.17
12
10.98
9.89
8.46
6.45
3.86
0.75
-2.55
-5.8
-8.81
-11.58
-14.19
-16.75
-19.24
-21.55
-23.58
-25.21
-26.45
-27.42
-28.27
-29.14
-30.24
-31.74
-33.72
-36.16
-38.65
-40.47
-40.63
-38.12
-32.28
-23.12
-11.39
1.59
14.29
25.54
34.65
41.51
46.37
49.53
51.22
51.61
50.95
49.59
47.96
46.38
44.93
43.39
41.4
38.71
35.44
32.04
29.14
27.31
26.59
26.41
25.73
23.28
18.09
9.91
-0.6
-12.02
-22.45
-30.24
-34.33
-34.68
-32.28
-28.87
-26.44
-26.64
-30.33
-37.19
-45.74
-53.7
-58.56
-58.38
-52.34
-41.04
-26.3
-10.62
3.61
14.73
22.21
26.44
28.42
29.18
29.39
29.3
28.81
27.77
26.15
24.04
21.64
19.12
16.58
14.08
11.78
9.84
8.48
7.79
7.67
7.9
8.17
8.2
7.89
7.24
6.34
5.28
4.08
2.69
0.99
-1.17
-3.84
-6.95
-10.34
-13.74
-16.81
-19.23
-20.6
-20.51
-18.63
-14.76
-9.11
-2.29
4.67
10.63
14.59
16.01
14.95
11.93
7.76
3.3
-0.69
-3.69
-5.37
-5.63
-4.59
-2.44
0.49
3.84
7.25
10.43
13.02
14.8
15.55
15.16
13.58
10.86
7.16
2.79
-1.77
-5.98
-9.4
-11.9
-13.66
-15.16
-17
-19.61
-23.07
-27.04
-30.89
-33.86
-35.26
-34.68
-31.99
-27.46
-21.58
-15.07
-8.59
-2.72
2.27
6.31
9.44
11.75
13.26
14.04
14.23
14.09
13.9
13.82
13.77
13.52
12.75
11.3
9.26
6.9
4.55
2.41
0.4
-1.71
-4.2
-7.17
-10.45
-13.72
-16.58
-18.79
-20.36
-21.59
-22.94
-24.85
-27.54
-30.92
-34.49
-37.45
-38.85
-37.9
-34.17
-27.8
-19.42
-9.98
-0.48
8.29
15.83
21.98
26.81
30.52
33.3
35.28
36.49
36.83
36.23
34.64
32.3
29.56
26.85
24.47
22.42
20.44
18.19
15.49
12.42
9.29
6.39
3.89
1.65
-0.65
-3.36
-6.62
-10.34
-14.2
-17.82
-20.93
-23.48
-25.62
-27.65
-29.84
-32.34
-35.18
-38.25
-41.31
-43.93
-45.54
-45.38
-42.71
-37
-28.23
-17.02
-4.55
7.76
18.69
27.49
34.02
38.55
41.49
43.15
43.69
43.23
41.93
40.06
37.98
35.93
33.98
31.98
29.72
27.01
23.87
20.5
17.25
14.44
12.23
10.56
9.14
7.63
5.72
3.35
0.64
-2.1
-4.51
-6.39
-7.7
-8.65
-9.53
-10.62
-12.01
-13.64
-15.31
-16.86
-18.23
-19.43
-20.54
-21.67
-22.9
-24.35
-26.22
-28.77
-32.1
-36.04
-39.93
-42.76
-43.39
-40.91
-35
-26.11
-15.35
-4.14
6.21
14.82
21.41
26.19
29.58
31.99
33.61
34.46
34.49
33.7
32.27
30.47
28.61
26.95
25.67
24.83
24.43
24.34
24.31
24.07
23.31
21.91
19.86
17.29
14.42
11.46
8.55
5.83
3.4
1.41
-0.1
-1.19
-2.04
-2.94
-4.14
-5.82
-7.99
-10.51
-13.12
-15.51
-17.37
-18.52
-18.98
-18.98
-18.88
-19.12
-20.03
-21.84
-24.64
-28.28
-32.44
-36.54
-39.88
-41.68
-41.33
-38.58
-33.57
-26.76
-18.81
-10.32
-1.85
6.17
13.4
19.58
24.53
28.2
30.65
32.04
32.55
32.39
31.77
30.89
29.93
29.02
28.23
27.49
26.63
25.47
23.87
21.84
19.52
17.14
14.87
12.75
10.67
8.51
6.22
3.94
1.88
0.23
-0.96
-1.82
-2.57
-3.37
-4.38
-5.59
-7.01
-8.59
-10.25
-11.85
-13.29
-14.52
-15.64
-16.95
-18.75
-21.28
-24.55
-28.28
-31.92
-34.8
-36.23
-35.69
-32.91
-27.93
-21.2
-13.48
-5.63
1.53
7.44
11.9
15.01
17.08
18.5
19.62
20.65
21.7
22.78
23.85
24.75
25.21
24.99
23.91
21.94
19.3
16.36
13.44
10.79
8.51
6.62
5.12
4.06
3.43
3.09
2.77
2.07
0.74
-1.22
-3.52
-5.75
-7.57
-8.95
-10.21
-11.82
-14.25
-17.69
-22.04
-26.81
-31.36
-34.93
-36.83
-36.56
-33.94
-29.12
-22.61
-15.13
-7.48
-0.34
5.82
10.8
14.65
17.52
19.56
20.9
21.66
21.96
22
22.01
22.19
22.61
23.19
23.66
23.78
23.41
22.61
21.6
20.66
19.99
19.55
19.13
18.47
17.33
15.66
13.59
11.34
9.15
7.09
5.09
2.97
0.5
-2.46
-5.97
-9.94
-14.22
-18.6
-22.83
-26.67
-29.93
-32.55
-34.7
-36.71
-38.99
-41.8
-45.05
-48.23
-50.39
-50.47
-47.55
-41.2
-31.63
-19.7
-6.73
5.84
16.75
25.2
30.9
33.98
34.81
33.86
31.54
28.27
24.45
20.54
16.98
14.14
12.18
11.11
10.8
11.03
11.61
12.38
13.22
13.97
14.4
14.21
13.03
10.64
7.04
2.55
-2.34
-7.09
-11.32
-14.88
-17.82
-20.24
-22.23
-23.86
-25.23
-26.52
-27.93
-29.61
-31.66
-34.03
-36.76
-39.96
-43.76
-48.05
-52.27
-55.35
-55.83
-52.46
-44.59
-32.65
-18.07
-2.83
11.21
22.84
31.74
38.27
43.04
46.48
48.58
49.11
47.91
45.17
41.48
37.56
33.85
30.3
26.49
21.96
16.64
11.08
6.24
3.06
2.07
3.02
5.08
7.17
8.45
8.61
7.82
6.62
5.59
5.08
5.14
5.55
5.91
5.73
4.6
2.26
-1.32
-5.84
-10.77
-15.41
-19.13
-21.55
-22.73
-23.07
-23.19
-23.76
-25.17
-27.48
-30.31
-32.89
-34.18
-33.22
-29.34
-22.5
-13.36
-3.07
7.03
15.87
22.87
27.99
31.47
33.65
34.72
34.73
33.81
32.13
30.03
27.88
26.01
24.49
23.25
22.11
20.9
19.52
17.96
16.29
14.62
13
11.41
9.75
7.92
5.79
3.37
0.77
-1.71
-3.7
-4.93
-5.37
-5.27
-5.17
-5.62
-7.01
-9.4
-12.49
-15.78
-18.77
-21.12
-22.69
-23.64
-24.28
-25.03
-26.32
-28.58
-32
-36.4
-41.09
-44.94
-46.66
-45.18
-40.09
-31.78
-21.32
-10.15
0.47
9.68
17.15
22.94
27.26
30.3
32.13
32.9
32.86
32.43
32.09
32.25
32.99
34.1
35.16
35.7
35.4
34.18
32.2
29.73
27.06
24.37
21.73
19.14
16.55
13.87
11.01
7.95
4.74
1.59
-1.19
-3.34
-4.75
-5.51
-5.94
-6.45
-7.33
-8.68
-10.38
-12.18
-13.89
-15.42
-16.77
-18.05
-19.41
-20.97
-22.93
-25.35
-28.2
-31.19
-33.79
-35.28
-34.99
-32.49
-27.77
-21.32
-13.95
-6.66
-0.33
4.54
7.8
9.67
10.54
10.78
10.6
10.13
9.44
8.7
8.2
8.19
8.82
10.05
11.65
13.25
14.6
15.59
16.28
16.84
17.42
18.05
18.62
18.9
18.63
17.72
16.29
14.65
13.12
11.96
11.1
10.33
9.29
7.79
5.76
3.37
0.85
-1.62
-3.9
-6.02
-8.01
-9.99
-12.09
-14.54
-17.51
-21.15
-25.32
-29.6
-33.36
-35.76
-36.21
-34.43
-30.66
-25.48
-19.68
-13.9
-8.51
-3.65
0.68
4.44
7.54
9.91
11.57
12.64
13.27
13.57
13.47
12.95
12.04
10.89
9.75
8.83
8.19
7.79
7.48
7.16
6.86
6.66
6.62
6.73
6.86
6.87
6.57
5.89
4.85
3.55
2.09
0.48
-1.29
-3.22
-5.29
-7.38
-9.28
-10.76
-11.74
-12.31
-12.82
-13.69
-15.35
-18.05
-21.64
-25.65
-29.36
-31.95
-32.78
-31.6
-28.61
-24.35
-19.6
-14.98
-10.91
-7.52
-4.71
-2.3
-0.16
1.78
3.55
5.18
6.74
8.29
9.82
11.33
12.78
14.14
15.45
16.81
18.26
19.84
21.52
23.22
24.86
26.32
27.43
28.06
28.07
27.49
26.48
25.23
23.92
22.58
21.05
19.06
16.41
13.03
9.02
4.64
0.15
-4.22
-8.36
-12.21
-15.78
-19.1
-22.29
-25.53
-29.01
-32.83
-36.87
-40.77
-43.96
-45.82
-45.86
-43.83
-39.82
-34.15
-27.37
-20.03
-12.7
-5.84
0.22
5.28
9.31
12.42
14.86
16.82
18.47
19.81
20.72
21.01
20.57
19.43
17.76
15.89
14.03
12.35
10.83
9.44
8.12
6.85
5.7
4.7
3.88
3.11
2.23
0.98
-0.8
-3.17
-6.03
-9.11
-12.09
-14.62
-16.49
-17.62
-18.11
-18.19
-18.17
-18.39
-19.14
-20.62
-22.8
-25.44
-28.12
-30.31
-31.63
-31.83
-30.91
-28.94
-26.1
-22.4
-17.8
-12.24
-5.65
1.86
10.07
18.39
26.1
32.33
36.42
37.98
37.09
34.24
30.15
25.67
21.48
18.09
15.74
14.47
14.07
14.17
14.37
14.3
13.86
13.13
12.38
11.84
11.63
11.7
11.83
11.75
11.18
9.91
7.82
4.89
1.28
-2.72
-6.65
-10.09
-12.73
-14.6
-16.02
-17.58
-19.75
-22.67
-26.05
-29.16
-31.17
-31.4
-29.56
-25.86
-20.84
-15.24
-9.75
-4.89
-0.93
2.03
4.11
5.57
6.71
7.84
9.22
10.99
13.19
15.76
18.51
21.24
23.6
25.32
26.21
26.27
25.7
24.76
23.65
22.42
20.91
18.97
16.47
13.49
10.31
7.24
4.52
2.27
0.48
-0.94
-2.1
-3.17
-4.3
-5.6
-7.08
-8.47
-9.39
-9.46
-8.57
-7.01
-5.44
-4.6
-5.07
-6.97
-10.04
-13.73
-17.43
-20.63
-22.94
-24.08
-23.82
-22.08
-18.94
-14.79
-10.2
-5.82
-2.07
0.93
3.34
5.54
7.86
10.49
13.4
16.45
19.51
22.55
25.5
28.23
30.46
31.76
31.74
30.21
27.26
23.37
19.14
15.17
11.85
9.32
7.46
6.04
4.87
3.86
3.02
2.37
1.89
1.43
0.83
-0.13
-1.52
-3.25
-5.18
-7.19
-9.25
-11.39
-13.72
-16.21
-18.73
-21.08
-23.06
-24.7
-26.15
-27.63
-29.28
-30.99
-32.38
-32.92
-32.11
-29.63
-25.54
-20.2
-14.26
-8.4
-3.19
1.07
4.38
6.9
8.82
10.24
11.19
11.74
12.07
12.42
13.04
13.99
15.08
15.98
16.35
16.09
15.36
14.53
14
13.99
14.44
15.1
15.55
15.46
14.67
13.31
11.71
10.3
9.42
9.1
9.1
8.94
8.15
6.43
3.76
0.42
-3.16
-6.54
-9.41
-11.61
-13.16
-14.28
-15.34
-16.8
-19.15
-22.69
-27.34
-32.58
-37.44
-40.83
-41.88
-40.23
-36.15
-30.38
-23.83
-17.2
-10.96
-5.18
0.14
4.95
9.15
12.55
15.06
16.72
17.72
18.31
18.71
19.11
19.65
20.47
21.55
22.82
24.07
25.1
25.83
26.34
26.81
27.45
28.25
29.05
29.57
29.6
29.07
28.1
26.92
25.67
24.44
23.21
21.86
20.29
18.42
16.17
13.49
10.28
6.48
2.12
-2.7
-7.73
-12.74
-17.51
-21.95
-26.08
-29.86
-33.14
-35.51
-36.41
-35.36
-32.16
-27.1
-20.91
-14.47
-8.55
-3.59
0.35
3.42
5.78
7.53
8.66
9.15
9.09
8.61
7.92
7.12
6.28
5.4
4.47
3.5
2.56
1.68
0.9
0.19
-0.49
-1.18
-1.94
-2.8
-3.77
-4.82
-5.91
-7.01
-8.12
-9.26
-10.45
-11.71
-13.01
-14.36
-15.72
-17.01
-18.14
-19.07
-19.84
-20.71
-21.89
-23.48
-25.24
-26.59
-26.79
-25.22
-21.69
-16.5
-10.37
-4.16
1.39
5.87
9.16
11.39
12.79
13.58
13.86
13.7
13.08
12.09
10.9
9.71
8.71
8.01
7.52
7.15
6.81
6.48
6.21
6.03
5.93
5.78
5.44
4.73
3.54
1.81
-0.38
-2.82
-5.21
-7.26
-8.77
-9.85
-10.78
-12
-13.86
-16.48
-19.76
-23.34
-26.8
-29.6
-31.21
-31.24
-29.39
-25.67
-20.38
-14.02
-7.2
-0.52
5.56
10.75
14.9
18.03
20.22
21.66
22.54
22.97
23.01
22.65
21.91
20.91
19.81
18.78
17.88
17.01
15.99
14.69
13.1
11.37
9.68
8.16
6.8
5.43
3.87
2.02
-0.19
-2.7
-5.35
-7.91
-10.18
-11.96
-13.27
-14.24
-15.21
-16.51
-18.38
-20.88
-23.81
-26.82
-29.44
-31.16
-31.54
-30.33
-27.47
-23.18
-17.96
-12.36
-6.94
-2.02
2.27
5.89
8.84
11.06
12.48
13.03
12.8
12.08
11.27
10.76
10.7
10.95
11.15
10.89
10
8.67
7.38
6.67
6.84
7.74
8.88
9.62
9.56
8.63
7.15
5.61
4.44
3.83
3.68
3.72
3.55
2.89
1.71
0.13
-1.53
-2.94
-3.86
-4.25
-4.32
-4.53
-5.45
-7.56
-11.05
-15.63
-20.6
-25.07
-28.45
-30.69
-32.31
-34.02
-36.15
-38.33
-39.55
-38.63
-34.94
-28.67
-20.82
-12.66
-5.08
1.66
7.89
14.09
20.47
26.72
32.21
36.21
38.32
38.58
37.41
35.39
33
30.48
27.83
25
22.1
19.38
17.25
16.01
15.75
16.19
16.87
17.29
17.15
16.44
15.33
14.07
12.75
11.39
9.84
7.96
5.71
3.05
0.07
-3.11
-6.31
-9.29
-11.81
-13.65
-14.7
-14.97
-14.65
-14.05
-13.58
-13.75
-14.99
-17.59
-21.5
-26.16
-30.55
-33.46
-33.8
-31.07
-25.44
-17.68
-8.92
-0.16
7.9
15.05
21.37
27.03
32.12
36.51
39.92
42.04
42.67
41.82
39.68
36.65
33.11
29.4
25.76
22.38
19.33
16.66
14.31
12.06
9.58
6.59
2.92
-1.26
-5.43
-8.91
-11.08
-11.68
-10.91
-9.37
-7.82
-6.92
-7.03
-8.13
-9.93
-11.96
-13.76
-14.97
-15.48
-15.37
-14.95
-14.66
-15
-16.43
-19.18
-23.25
-28.19
-33.13
-36.95
-38.56
-37.26
-33.04
-26.49
-18.7
-10.82
-3.76
2
6.39
9.62
11.94
13.62
14.8
15.49
15.63
15.16
14.17
12.85
11.58
10.74
10.54
11.01
11.95
13.15
14.43
15.74
17.01
18.15
18.94
19.04
18.15
16.13
13.09
9.43
5.6
2.06
-0.84
-3.04
-4.62
-5.83
-7.04
-8.58
-10.69
-13.42
-16.52
-19.59
-22.22
-24.11
-25.29
-26.02
-26.73
-27.83
-29.45
-31.49
-33.54
-35.12
-35.64
-34.65
-31.91
-27.48
-21.77
-15.45
-9.2
-3.54
1.35
5.72
9.96
14.37
18.97
23.41
27.18
29.78
31.01
30.95
29.98
28.56
27.11
25.92
25.04
24.36
23.67
22.78
21.62
20.22
18.75
17.43
16.42
15.74
15.26
14.78
14.08
13.04
11.67
10.08
8.39
6.72
5.04
3.19
0.93
-1.99
-5.69
-10.06
-14.75
-19.34
-23.38
-26.53
-28.66
-29.83
-30.24
-30.29
-30.53
-31.49
-33.61
-37.04
-41.58
-46.68
-51.53
-55.32
-57.39
-57.47
-55.77
-52.89
-49.71
-47.08
-45.57
-45.25
-45.72
-46.28
-46.21
-45.08
-42.84
-40.08
-37.86
-37.57
-40.45
-47.19
-57.58
-70.41
-83.91
-96.32
-106.59
-114.67
-121.4
-128.03
-135.59
-144.43
-154.16
-163.69
-171.48
-175.83
-175.03
-167.66
-152.75
-129.95
-99.65
-63.06
-22.13
20.65
62.53
100.92
133.78
159.85
178.89
191.39
198.32
200.7
199.35
194.69
186.94
176.26
163.14
148.45
133.4
119.41
107.67
98.79
92.72
88.81
86.09
83.59
80.66
77.05
72.91
68.59
64.43
60.63
57.26
54.33
51.79
49.63
47.9
46.55
45.44
44.17
42.32
39.53
35.69
31.02
25.98
21.06
16.65
12.84
9.51
6.54
3.84
1.54
-0.14
-0.98
-1.02
-0.51
0.1
0.25
-0.49
-2.29
-5.08
-8.41
-11.66
-14.2
-15.51
-15.39
-14.14
-12.49
-11.33
-11.5
-13.37
-16.69
-20.66
-24.21
-26.28
-26.2
-23.91
-19.94
-15.26
-11.05
-8.21
-7.21
-7.87
-9.4
-10.79
-11.12
-9.88
-7.07
-3.08
1.57
6.44
11.18
15.5
19.08
21.47
22.31
21.43
19.05
15.81
12.6
10.28
9.53
10.49
12.76
15.6
18.09
19.51
19.54
18.36
16.39
14.1
11.73
9.24
6.46
3.18
-0.52
-4.34
-7.78
-10.4
-11.86
-12.05
-11.09
-9.33
-7.37
-5.92
-5.73
-7.35
-10.93
-16.03
-21.72
-26.79
-30.06
-30.84
-28.99
-24.97
-19.57
-13.67
-7.91
-2.56
2.32
6.79
10.7
13.73
15.39
15.38
13.63
10.5
6.64
2.74
-0.67
-3.37
-5.39
-6.84
-7.75
-8.06
-7.58
-6.16
-3.7
-0.23
4.21
9.52
15.68
22.55
29.9
37.27
44.04
49.51
53.07
54.38
53.37
50.28
45.5
39.63
33.26
26.93
20.86
15.04
9.12
2.72
-4.31
-11.62
-18.39
-23.52
-26.15
-25.93
-23.25
-18.95
-13.99
-9.15
-4.81
-1.12
1.87
4.01
5.14
5.15
4.17
2.55
0.73
-0.88
-2.16
-3.15
-4.06
-4.99
-5.93
-6.76
-7.26
-7.3
-6.81
-5.84
-4.5
-2.95
-1.4
-0.02
1.02
1.64
1.77
1.39
0.45
-1.08
-3.2
-5.89
-9.04
-12.52
-16.11
-19.51
-22.28
-23.97
-24.16
-22.66
-19.62
-15.51
-11.01
-6.75
-3.24
-0.55
1.44
3.02
4.45
5.76
6.86
7.53
7.64
7.26
6.57
5.83
5.18
4.62
4.04
3.39
2.6
1.73
0.79
-0.3
-1.71
-3.61
-6.11
-9.13
-12.45
-15.84
-19.19
-22.48
-25.75
-29.07
-32.4
-35.62
-38.65
-41.47
-44.12
-46.68
-49.13
-51.26
-52.66
-52.75
-51.05
-47.27
-41.45
-33.99
-25.5
-16.68
-8.1
-0.11
7.14
13.56
19.08
23.58
26.92
29
29.87
29.77
29.04
28.08
27.27
26.93
27.33
28.53
30.38
32.52
34.38
35.32
34.87
32.83
29.33
24.79
19.74
14.69
10.06
6.1
2.92
0.56
-1.05
-2.02
-2.54
-2.82
-3.12
-3.77
-5.11
-7.48
-10.99
-15.43
-20.21
-24.39
-27.04
-27.48
-25.5
-21.48
-16.07
-10.03
-3.99
1.65
6.68
11
14.62
17.67
20.37
22.9
25.23
26.94
27.35
25.8
22.05
16.53
10.35
4.83
1.11
-0.3
0.35
2.37
4.86
6.96
8
7.53
5.34
1.62
-2.99
-7.44
-10.51
-11.39
-10.01
-7.19
-4.44
-3.3
-4.61
-8.23
-13.05
-17.59
-20.67
-21.97
-22.09
-22.24
-23.66
-27.22
-33.16
-41.13
-50.28
-59.27
-66.5
-70.35
-69.9
-65.34
-57.99
-49.8
-42.39
-36.12
-30.04
-22.41
-11.76
2.2
18.39
34.88
49.66
61.38
69.58
74.48
76.68
76.85
75.66
73.75
71.81
70.38
69.81
70.07
70.67
70.79
69.45
65.79
59.32
50.08
38.6
25.81
12.81
0.62
-10.04
-18.83
-25.87
-31.51
-36.2
-40.18
-43.35
-45.43
-46.12
-45.41
-43.72
-41.76
-40.3
-39.81
-40.45
-42.17
-44.96
-49.03
-54.72
-62.03
-70.34
-78.1
-83.2
-83.47
-77.47
-65
-47.17
-26.13
-4.35
15.99
33.38
47.1
56.96
63.17
66.11
66.42
65.02
63.05
61.73
61.92
63.83
66.76
69.46
70.45
68.62
63.61
55.88
46.51
36.78
27.82
20.3
14.39
9.83
6.21
3.09
0.21
-2.38
-4.38
-5.41
-5.17
-3.71
-1.47
0.8
2.3
2.37
0.77
-2.37
-6.57
-11.22
-15.69
-19.61
-22.89
-25.71
-28.42
-31.3
-34.26
-36.8
-38.06
-37.12
-33.45
-27.12
-18.89
-9.85
-1.06
6.79
13.49
19.2
24.23
28.74
32.78
36.26
38.94
40.61
41
39.88
37.16
32.98
27.77
22.28
17.36
13.7
11.64
11.02
11.28
11.69
11.56
10.44
8.15
4.73
0.33
-4.81
-10.34
-15.85
-20.88
-25.17
-28.66
-31.57
-34.29
-37.18
-40.31
-43.46
-46.14
-47.8
-48.11
-47.14
-45.33
-43.42
-42.11
-41.83
-42.59
-43.96
-45.11
-45.15
-43.18
-38.61
-31.37
-22.03
-11.65
-1.5
7.38
14.52
20.13
24.74
28.82
32.46
35.25
36.67
36.37
34.53
31.82
29.11
27.12
26.11
25.89
25.88
25.51
24.41
22.53
20.18
17.78
15.7
14.14
13.08
12.36
11.76
11.09
10.12
8.69
6.63
3.96
0.9
-2.14
-4.73
-6.53
-7.38
-7.39
-6.81
-6.03
-5.42
-5.38
-6.32
-8.52
-12.01
-16.45
-21.14
-25.04
-27.19
-26.91
-24.02
-18.85
-12.17
-4.91
2.15
8.43
13.69
17.87
21.04
23.27
24.61
25.14
24.97
24.27
23.24
22.04
20.8
19.6
18.49
17.56
16.85
16.34
15.93
15.44
14.72
13.7
12.46
11.13
9.81
8.5
7.12
5.54
3.61
1.35
-1.12
-3.56
-5.73
-7.43
-8.61
-9.35
-9.88
-10.42
-11.21
-12.45
-14.34
-17.05
-20.6
-24.76
-28.99
-32.47
-34.38
-34.07
-31.36
-26.62
-20.59
-14.16
-8.09
-2.92
1.2
4.34
6.67
8.3
9.15
8.99
7.57
4.84
1.14
-2.76
-5.86
-7.32
-6.76
-4.43
-1.12
2.27
5.06
6.97
8.12
8.78
9.15
9.24
8.92
8
6.36
4
1.07
-2.21
-5.55
-8.7
-11.46
-13.7
-15.38
-16.55
-17.32
-17.9
-18.5
-19.26
-20.08
-20.63
-20.35
-18.7
-15.39
-10.54
-4.72
1.28
6.73
11.15
14.37
16.48
17.73
18.39
18.78
19.15
19.69
20.47
21.45
22.52
23.54
24.35
24.85
24.95
24.53
23.56
22.04
20.08
17.85
15.57
13.4
11.4
9.48
7.48
5.24
2.74
0.04
-2.66
-5.17
-7.38
-9.38
-11.26
-13.2
-15.29
-17.52
-19.95
-22.67
-25.86
-29.62
-33.81
-37.95
-41.22
-42.74
-41.82
-38.27
-32.41
-25.08
-17.24
-9.75
-3.15
2.34
6.77
10.31
13.11
15.32
16.99
18.15
18.85
19.08
18.91
18.38
17.52
16.39
15.02
13.46
11.77
10.05
8.34
6.74
5.24
3.79
2.31
0.66
-1.27
-3.44
-5.75
-8.01
-10.05
-11.78
-13.23
-14.48
-15.58
-16.62
-17.59
-18.59
-19.82
-21.55
-24.05
-27.39
-31.27
-35.08
-37.96
-39.1
-38.03
-34.68
-29.39
-22.77
-15.45
-7.97
-0.67
6.21
12.51
18
22.4
25.43
26.96
27.03
25.9
23.94
21.47
18.72
15.79
12.77
9.79
6.96
4.48
2.42
0.86
-0.24
-0.97
-1.52
-2.14
-3.04
-4.38
-6.1
-7.97
-9.7
-11.1
-12.21
-13.23
-14.49
-16.21
-18.43
-20.98
-23.51
-25.57
-26.73
-26.58
-24.89
-21.7
-17.31
-12.26
-7.14
-2.39
1.8
5.46
8.74
11.84
14.83
17.7
20.31
22.49
24.05
24.87
24.92
24.31
23.24
21.93
20.61
19.35
18.13
16.91
15.72
14.6
13.71
13.14
12.84
12.64
12.25
11.39
9.92
7.88
5.43
2.78
0.13
-2.48
-5.05
-7.6
-10.14
-12.58
-14.79
-16.67
-18.19
-19.58
-21.21
-23.34
-25.99
-28.78
-31.02
-31.96
-31.09
-28.33
-24.03
-18.87
-13.51
-8.51
-4.12
-0.4
2.78
5.53
8
10.23
12.25
14
15.42
16.43
17.05
17.38
17.57
17.81
18.21
18.84
19.68
20.6
21.47
22.2
22.72
23.02
23.09
22.93
22.54
21.94
21.17
20.28
19.3
18.21
17.03
15.7
14.26
12.74
11.21
9.69
8.16
6.51
4.58
2.31
-0.31
-3.19
-6.24
-9.32
-12.32
-15.14
-17.71
-20.01
-22.09
-24.12
-26.39
-29.11
-32.32
-35.76
-38.77
-40.58
-40.51
-38.24
-33.91
-28.06
-21.39
-14.52
-7.9
-1.75
3.77
8.57
12.61
15.91
18.57
20.67
22.26
23.31
23.78
23.69
23.14
22.29
21.23
19.99
18.58
17.09
15.67
14.56
13.93
13.75
13.76
13.58
12.92
11.7
10.15
8.63
7.49
6.88
6.7
6.62
6.23
5.25
3.63
1.54
-0.64
-2.59
-4.16
-5.45
-6.75
-8.42
-10.69
-13.57
-16.89
-20.27
-23.3
-25.66
-27.19
-28.03
-28.64
-29.66
-31.75
-35.19
-39.73
-44.51
-48.3
-49.91
-48.65
-44.47
-37.99
-30.19
-22.09
-14.42
-7.68
-2.01
2.53
5.97
8.35
9.72
10.09
9.52
8.13
6.21
4.3
3.07
3.15
4.98
8.52
13.23
18.29
22.78
25.98
27.62
27.83
27.11
26.09
25.38
25.29
25.9
26.97
28.08
28.87
29.12
28.79
27.97
26.75
25.1
22.98
20.38
17.37
14.09
10.65
7.03
3.14
-1.02
-5.25
-9.13
-12.21
-14.28
-15.57
-16.75
-18.69
-22.08
-27.04
-33.06
-39.03
-43.57
-45.45
-44
-39.32
-32.27
-24.21
-16.48
-10.07
-5.36
-2.12
0.19
2.25
4.64
7.65
11.4
15.73
20.34
24.78
28.55
31.18
32.38
32.11
30.66
28.59
26.57
25.17
24.66
24.98
25.82
26.87
27.94
28.97
29.94
30.73
30.99
30.29
28.33
25.01
20.53
15.26
9.69
4.3
-0.48
-4.35
-7.18
-9.1
-10.44
-11.63
-13.04
-14.91
-17.3
-20.16
-23.39
-26.83
-30.3
-33.67
-36.84
-39.67
-41.94
-43.21
-42.9
-40.46
-35.68
-28.83
-20.67
-12.15
-4.1
3.08
9.34
14.86
19.76
24.02
27.53
30.18
31.93
32.79
32.76
31.73
29.63
26.55
22.82
19.02
15.77
13.53
12.34
11.92
11.71
11.17
9.95
8.05
5.69
3.26
1.06
-0.72
-2.1
-3.19
-4.22
-5.37
-6.75
-8.52
-10.81
-13.64
-16.91
-20.3
-23.36
-25.72
-27.18
-27.82
-27.9
-27.81
-27.86
-28.32
-29.31
-30.89
-32.89
-34.9
-36.29
-36.31
-34.33
-30.09
-23.82
-16.14
-7.88
0.12
7.27
13.18
17.76
21.03
23.14
24.25
24.54
24.19
23.4
22.36
21.17
19.93
18.69
17.6
16.91
16.95
17.99
20.11
23.09
26.43
29.44
31.44
31.96
30.86
28.32
24.75
20.68
16.57
12.71
9.18
5.92
2.72
-0.63
-4.17
-7.78
-11.11
-13.81
-15.64
-16.54
-16.79
-16.87
-17.31
-18.57
-20.76
-23.63
-26.59
-28.82
-29.51
-28.06
-24.26
-18.36
-11.02
-3.2
4.03
9.72
13.22
14.31
13.24
10.63
7.26
3.85
0.95
-1.16
-2.27
-2.36
-1.46
0.16
2.01
3.47
3.91
3.01
0.89
-1.96
-4.89
-7.28
-8.84
-9.61
-9.87
-10.05
-10.54
-11.6
-13.37
-15.85
-18.89
-22.28
-25.68
-28.72
-31.01
-32.21
-32.03
-30.42
-27.64
-24.28
-21.24
-19.44
-19.53
-21.58
-24.92
-28.35
-30.46
-30.11
-26.72
-20.39
-11.71
-1.57
8.97
18.84
26.98
32.5
34.87
34.05
30.63
25.68
20.52
16.34
13.9
13.38
14.43
16.38
18.51
20.23
21.17
21.22
20.41
18.83
16.61
13.89
10.89
7.87
5.08
2.67
0.73
-0.77
-1.89
-2.69
-3.24
-3.72
-4.29
-5.14
-6.42
-8.28
-10.8
-14.02
-17.85
-21.9
-25.49
-27.8
-28.1
-26.08
-21.99
-16.55
-10.63
-4.83
0.58
5.72
10.69
15.35
19.29
21.99
23.13
22.89
21.91
21.09
21.28
22.88
25.7
29.1
32.18
34.14
34.55
33.45
31.29
28.69
26.18
23.98
21.93
19.65
16.82
13.28
9.19
4.85
0.64
-3.21
-6.59
-9.48
-12.06
-14.66
-17.85
-22.27
-28.4
-36.18
-44.77
-52.57
-57.58
-58.06
-53.15
-43.28
-30.19
-16.32
-4.14
4.7
9.72
11.53
11.34
10.41
9.57
9.19
9.3
9.8
10.65
11.69
12.57
12.66
11.25
7.88
2.6
-3.92
-10.53
-16.05
-19.67
-21.17
-20.94
-19.7
-18.12
-16.56
-15.02
-13.28
-11.18
-8.86
-6.81
-5.72
-6.28
-8.89
-13.45
-19.3
-25.23
-29.74
-31.43
-29.46
-23.82
-15.43
-5.96
2.7
8.91
11.8
11.39
8.56
4.74
1.48
0.03
0.93
3.94
8.07
12.08
14.84
15.71
14.65
12.04
8.49
4.62
0.94
-2.2
-4.73
-6.91
-9.32
-12.56
-16.92
-21.97
-26.52
-28.98
-28.04
-23.37
-15.79
-7.08
0.78
6.22
8.59
8
4.95
-0.03
-6.51
-14.03
-21.89
-29.05
-34.29
-36.59
-35.49
-31.14
-24.18
-15.45
-5.78
4.1
13.52
21.77
28.23
32.47
34.41
34.34
32.98
31.32
30.58
32.07
36.93
45.81
58.4
73.26
87.74
98.59
102.86
98.8
86.56
68.14
46.76
25.82
7.98
-5.52
-14.78
-20.79
-24.89
-28.04
-30.61
-32.44
-33.07
-32.1
-29.49
-25.65
-21.39
-17.72
-15.62
-15.9
-18.99
-25.01
-33.54
-43.7
-54.09
-63.06
-69.11
-71.16
-68.98
-63.08
-54.51
-44.39
-33.57
-22.46
-11.14
0.36
11.83
22.76
32.36
39.88
44.79
47.01
47
45.57
43.71
42.34
41.99
42.76
44.24
45.66
46.05
44.64
41.04
35.49
28.72
21.75
15.45
10.32
6.37
3.25
0.53
-2.1
-4.72
-7.27
-9.71
-12.03
-14.31
-16.58
-18.79
-20.77
-22.39
-23.58
-24.52
-25.59
-27.25
-29.91
-33.78
-38.71
-44.27
-49.82
-54.62
-58
-59.39
-58.37
-54.76
-48.63
-40.36
-30.53
-20
-9.64
-0.31
7.38
13.17
17.16
19.77
21.69
23.58
26.08
29.59
34.2
39.61
45.16
49.78
52.23
51.48
47.06
39.44
29.94
20.41
12.68
7.99
6.62
8.07
11.23
14.88
18.02
20.05
20.75
20.13
18.32
15.49
11.82
7.52
2.86
-1.86
-6.33
-10.39
-13.98
-17.22
-20.39
-23.72
-27.49
-31.92
-37.17
-43.22
-49.8
-56.27
-61.75
-65.28
-66.19
-64.33
-60.04
-54.01
-47
-39.65
-32.33
-25.14
-18.08
-11.08
-4.01
3.17
10.41
17.5
24.1
29.85
34.53
38.04
40.45
41.78
41.96
40.86
38.4
34.83
30.79
27.21
25.09
25.18
27.83
32.85
39.7
47.45
55.01
61.13
64.74
65.05
61.82
55.48
46.94
37.45
28.18
19.95
13.14
7.82
3.84
0.99
-1.06
-2.86
-5.05
-8.38
-13.31
-19.69
-26.56
-32.33
-35.26
-34.08
-28.52
-19.39
-8.41
2.56
12.04
19.39
24.75
28.73
31.91
34.53
36.5
37.53
37.45
36.34
34.48
32.22
29.84
27.49
25.2
23.07
21.26
19.96
19.2
18.73
18.02
16.48
13.67
9.56
4.59
-0.57
-5.15
-8.68
-10.99
-12.26
-12.84
-13.1
-13.31
-13.63
-14.17
-14.94
-15.99
-17.42
-19.45
-22.27
-26.09
-30.93
-36.62
-42.75
-48.71
-53.79
-57.24
-58.46
-57.05
-53
-46.66
-38.77
-30.3
-22.15
-15
-9.1
-4.28
-0.08
3.99
8.19
12.39
16.02
18.4
19.01
17.84
15.52
13.07
11.52
11.45
12.81
14.98
17.16
18.74
19.52
19.74
19.82
20.11
20.59
20.99
20.76
19.43
16.72
12.67
7.68
2.35
-2.61
-6.63
-9.37
-10.86
-11.39
-11.47
-11.75
-12.83
-15.12
-18.72
-23.33
-28.35
-33.12
-37.04
-39.78
-41.23
-41.3
-39.82
-36.48
-31.01
-23.35
-14.05
-4.18
4.83
11.68
15.63
16.66
15.49
13.12
10.51
8.2
6.23
4.3
2.12
-0.35
-2.83
-4.85
-6.03
-6.33
-6.09
-5.87
-6.12
-6.95
-7.9
-8.26
-7.38
-5.04
-1.73
1.54
3.61
3.67
1.44
-2.71
-8.11
-14.16
-20.6
-27.52
-35.01
-42.84
-50.26
-56.2
-59.52
-59.47
-55.71
-48.28
-37.43
-23.55
-7.38
9.8
26.08
39.47
48.54
53.16
54.53
54.78
55.94
59.01
63.53
67.9
70.13
68.82
63.78
56.06
47.44
39.72
33.98
30.34
28.05
26.08
23.65
20.52
17
13.63
10.66
7.92
4.85
0.89
-4.16
-9.95
-15.67
-20.41
-23.52
-24.77
-24.5
-23.42
-22.58
-23
-25.52
-30.51
-37.53
-45.45
-52.52
-56.98
-57.55
-53.78
-46.16
-35.8
-24.15
-12.52
-2.02
6.5
12.42
15.35
15.21
12.4
7.73
2.35
-2.55
-6.06
-7.78
-8.06
-7.87
-8.56
-11.4
-17.03
-25.1
-34.14
-41.98
-46.46
-46.16
-41.1
-32.7
-23.3
-15.34
-10.63
-9.83
-12.5
-17.42
-23.1
-28.17
-31.63
-32.91
-31.87
-28.78
-24.28
-19.24
-14.68
-11.38
-9.57
-8.86
-8.35
-7.02
-4.16
0.17
5.27
10.1
13.9
16.56
18.68
21.21
24.85
29.69
35.11
40.17
44.07
46.62
48.21
49.61
51.46
53.97
56.73
58.83
59.2
56.89
51.41
42.83
31.81
19.55
7.52
-2.9
-10.88
-16.26
-19.7
-22.25
-24.89
-28.08
-31.53
-34.26
-35
-32.62
-26.58
-17.17
-5.69
5.8
14.76
19
17.36
10.28
-0.2
-11.08
-19.34
-22.95
-21.28
-15.1
-5.96
4.43
14.68
23.82
31.27
36.57
39.51
40.09
38.65
35.82
32.36
28.99
26.18
24.02
22.27
20.53
18.47
15.95
13.22
10.8
9.34
9.23
10.42
12.27
13.74
13.8
11.8
7.85
2.77
-2.18
-5.82
-7.46
-7.11
-5.49
-3.64
-2.69
-3.5
-6.62
-12.13
-19.54
-27.8
-35.28
-40.2
-41.01
-37.06
-28.82
-17.83
-6.16
4.38
12.8
19.16
24.28
29.11
34.09
38.97
42.98
45.37
45.94
45.22
44.2
43.76
44.21
45.14
45.68
45.03
42.74
38.85
33.74
27.82
21.43
14.82
8.21
1.86
-3.92
-8.88
-12.94
-16.1
-18.54
-20.46
-22.09
-23.7
-25.53
-27.77
-30.6
-34.18
-38.63
-44.03
-50.29
-56.89
-62.92
-67.18
-68.44
-65.92
-59.54
-49.93
-38.27
-25.82
-13.6
-2.26
7.84
16.43
23.16
27.6
29.58
29.32
27.51
25.19
23.2
21.97
21.27
20.32
18.24
14.45
8.91
2.26
-4.37
-9.84
-13.29
-14.47
-13.87
-12.53
-11.63
-12.23
-14.9
-19.59
-25.81
-32.64
-39.26
-45.08
-50.08
-54.82
-60.14
-66.8
-74.88
-83.52
-90.93
-94.82
-93.16
-84.74
-69.67
-49.3
-25.88
-2.03
19.75
37.53
50.19
57.45
59.94
59.01
56.5
54.28
53.79
55.66
59.57
64.44
68.78
71.28
71.19
68.5
63.86
58.27
52.84
48.46
45.73
44.72
45.03
45.76
45.7
43.67
38.88
31.24
21.44
10.74
0.63
-7.65
-13.48
-17.01
-19.01
-20.46
-22.17
-24.46
-27.1
-29.49
-30.98
-31.16
-30.05
-28.06
-25.81
-23.83
-22.46
-21.73
-21.42
-21.31
-21.17
-20.9
-20.49
-19.96
-19.35
-18.63
-17.74
-16.59
-15.18
-13.56
-11.87
-10.3
-9
-8.16
-7.91
-8.38
-9.67
-11.89
-15.16
-19.52
-24.92
-31.07
-37.55
-43.86
-49.44
-53.94
-57.27
-59.64
-61.56
-63.76
-66.87
-71.16
-76.27
-81.19
-84.48
-84.77
-81.31
-74.37
-65.15
-55.29
-46.35
-39.3
-34.46
-31.81
-31.28
-32.92
-36.67
-42.04
-47.79
-52.2
-53.51
-50.67
-43.74
-33.91
-22.8
-11.87
-1.78
7.67
17.06
26.74
36.3
44.49
49.65
50.34
45.96
36.96
24.68
10.82
-3.07
-15.99
-27.64
-38.4
-49.25
-61.58
-76.95
-96.5
-120.21
-146.21
-170.68
-188.67
-195.58
-188.94
-169.23
-139.74
-105.14
-69.73
-36.07
-4.59
25.92
57.31
91.37
129.24
171.01
215.35
259.26
298.32
327.73
343.79
345.33
334.04
313.84
289.32
264.33
241.16
220.57
202.44
186.43
172.22
159.47
147.66
136.08
124.17
111.67
98.85
86.33
74.82
64.69
55.83
47.62
39.16
29.71
18.99
7.37
-4.23
-14.71
-23.26
-29.67
-34.43
-38.52
-43
-48.56
-55.09
-61.62
-66.58
-68.34
-65.77
-58.75
-48.27
-36.08
-24.14
-14.04
-6.49
-1.5
1.52
3.22
4.13
4.46
4.34
3.87
3.23
2.7
2.49
2.73
3.36
4.23
5.15
5.92
6.45
6.7
6.64
6.22
5.32
3.75
1.33
-1.97
-5.96
-10.23
-14.27
-17.7
-20.43
-22.64
-24.65
-26.7
-28.8
-30.78
-32.33
-33.25
-33.48
-33.25
-32.96
-33.15
-34.3
-36.65
-40.07
-43.87
-47
-48.24
-46.64
-41.88
-34.36
-25.01
-14.99
-5.23
3.75
11.91
19.4
26.36
32.66
37.95
41.81
43.95
44.42
43.58
41.93
39.89
37.6
34.92
31.61
27.55
22.95
18.33
14.29
11.33
9.48
8.43
7.55
6.3
4.43
2.14
-0.09
-1.76
-2.73
-3.24
-3.93
-5.44
-8.23
-12.29
-17.22
-22.42
-27.27
-31.41
-34.69
-37.22
-39.22
-41.1
-43.33
-46.39
-50.56
-55.74
-61.3
-66.09
-68.71
-67.93
-63.06
-54.28
-42.55
-29.36
-16.28
-4.57
5.09
12.56
18.11
22.17
25.07
26.99
27.98
28.06
27.31
25.89
24.04
22
19.96
18.08
16.56
15.5
14.99
14.97
15.21
15.37
15.11
14.26
12.83
11.03
9.07
7.08
4.96
2.52
-0.47
-4.08
-8.13
-12.25
-16.02
-19.07
-21.31
-22.94
-24.34
-26.03
-28.44
-31.83
-36.2
-41.21
-46.2
-50.21
-52.14
-51
-46.25
-38.1
-27.39
-15.49
-3.82
6.59
15.27
22.33
28.09
32.96
37.12
40.53
43.07
44.59
45.13
44.81
43.88
42.56
41.02
39.3
37.38
35.24
32.95
30.73
28.83
27.33
26.05
24.53
22.24
18.87
14.51
9.53
4.51
-0.26
-4.81
-9.57
-14.97
-21.23
-28.11
-34.94
-40.91
-45.36
-48.02
-49.07
-49.02
-48.56
-48.3
-48.66
-49.75
-51.38
-53.05
-54.05
-53.73
-51.62
-47.73
-42.59
-37.01
-31.79
-27.36
-23.55
-19.69
-14.81
-8.16
0.5
10.67
21.27
30.91
38.35
42.79
44.02
42.44
38.83
34.2
29.51
25.57
22.99
22.02
22.63
24.4
26.62
28.47
29.2
28.34
25.87
22.21
18.15
14.57
12.13
11.01
10.81
10.62
9.35
6.15
0.73
-6.54
-14.77
-22.87
-29.9
-35.36
-39.2
-41.81
-43.85
-45.97
-48.58
-51.62
-54.45
-55.99
-55.02
-50.62
-42.59
-31.57
-18.91
-6.19
5.17
14.33
21.06
25.53
28.17
29.36
29.39
28.42
26.57
23.96
20.77
17.24
13.65
10.28
7.33
4.84
2.69
0.62
-1.61
-4.19
-7.09
-10.18
-13.25
-16.03
-18.21
-19.45
-19.48
-18.17
-15.73
-12.66
-9.71
-7.6
-6.86
-7.55
-9.37
-11.73
-13.97
-15.53
-16.06
-15.54
-14.39
-13.33
-13.36
-15.38
-19.93
-26.98
-35.81
-45.16
-53.61
-59.89
-63.18
-63.25
-60.39
-55.27
-48.7
-41.5
-34.46
-28.34
-23.88
-21.9
-23.08
-27.82
-35.85
-46.01
-56.24
-63.75
-65.67
-59.84
-45.65
-24.41
0.82
26.23
48.18
64.38
74.16
78.24
78
74.8
69.6
63
55.58
48.13
41.56
36.61
33.44
31.59
29.98
27.48
23.18
16.81
8.67
-0.53
-10
-19.25
-28.06
-36.59
-45.21
-54.34
-64.27
-74.97
-85.75
-95.25
-101.43
-102.13
-95.63
-81.37
-60.15
-34.06
-6.01
20.92
43.97
61.11
71.33
74.7
72.43
66.61
59.7
53.89
50.57
50.05
51.71
54.39
56.93
58.45
58.48
56.87
53.73
49.21
43.56
37.02
29.87
22.31
14.42
6.09
-2.82
-12.38
-22.37
-32.31
-41.42
-48.97
-54.42
-57.5
-58.24
-56.87
-53.78
-49.47
-44.61
-39.98
-36.33
-34.01
-32.78
-31.76
-29.55
-24.64
-15.84
-2.59
14.79
35.21
56.92
77.9
96.2
110.38
119.81
124.69
125.88
124.51
121.6
117.82
113.49
108.6
103.19
97.37
91.35
85.47
80.1
75.57
72.1
69.7
68.12
66.83
65.09
62.18
57.65
51.56
44.54
37.6
31.79
27.77
25.49
24.18
22.72
20.08
15.82
10.15
3.91
-1.95
-6.73
-10.32
-13.07
-15.62
-18.47
-21.76
-25.24
-28.34
-30.48
-31.27
-30.54
-28.41
-25.13
-20.98
-16.26
-11.22
-6.14
-1.34
2.77
5.76
7.29
7.17
5.51
2.67
-0.74
-4.14
-7.05
-9.17
-10.4
-10.81
-10.55
-9.81
-8.92
-8.22
-8.12
-9.01
-11.07
-14.33
-18.52
-23.16
-27.6
-31.17
-33.28
-33.67
-32.45
-30.13
-27.42
-25.09
-23.75
-23.57
-24.38
-25.61
-26.51
-26.35
-24.61
-21.19
-16.35
-10.73
-5.07
-0.12
3.58
5.77
6.5
6.06
4.84
3.3
1.76
0.39
-0.87
-2.1
-3.39
-4.7
-5.8
-6.48
-6.5
-5.84
-4.57
-2.97
-1.4
-0.3
-0.24
-1.69
-4.92
-9.66
-15.03
-19.63
-21.96
-20.95
-16.55
-9.83
-2.76
2.4
3.91
1.08
-5.57
-14.53
-23.86
-31.81
-37.18
-39.61
-39.42
-37.39
-34.34
-30.86
-27.08
-22.86
-18.02
-12.62
-7.1
-2.18
1.51
3.65
4.41
4.31
3.89
3.49
3.18
2.95
2.86
3.13
3.99
5.49
7.38
9.08
9.97
9.73
8.35
6.17
3.65
1.21
-0.91
-2.57
-3.68
-4.14
-3.8
-2.63
-0.74
1.46
3.26
3.86
2.58
-0.89
-6.32
-13.01
-20.08
-26.55
-31.7
-35.04
-36.22
-35.09
-31.73
-26.48
-19.95
-12.97
-6.27
-0.35
4.57
8.49
11.47
13.47
14.31
13.88
12.27
9.88
7.37
5.4
4.51
4.84
6.18
8.07
9.95
11.48
12.52
13.19
13.51
13.42
12.59
10.68
7.5
3.24
-1.57
-6.15
-9.82
-12.19
-13.2
-13.14
-12.41
-11.43
-10.55
-10.04
-10.14
-10.96
-12.5
-14.61
-17.07
-19.64
-22.23
-24.9
-27.82
-31.04
-34.38
-37.2
-38.55
-37.53
-33.59
-26.89
-18.32
-9.24
-1
5.57
10.33
13.73
16.42
18.9
21.25
23.23
24.5
24.87
24.4
23.38
22.17
21.04
20.17
19.59
19.31
19.34
19.58
19.86
19.85
19.24
17.82
15.66
13.04
10.35
7.9
5.75
3.74
1.72
-0.43
-2.57
-4.41
-5.7
-6.38
-6.65
-6.86
-7.4
-8.44
-9.88
-11.48
-12.97
-14.23
-15.44
-16.94
-19.04
-21.93
-25.58
-29.69
-33.81
-37.37
-39.7
-40.15
-38.2
-33.64
-26.77
-18.42
-9.75
-1.94
4.15
8.22
10.48
11.47
11.78
11.83
11.82
11.81
11.74
11.64
11.56
11.62
11.86
12.22
12.5
12.51
12.1
11.28
10.16
8.93
7.75
6.67
5.7
4.74
3.78
2.83
1.92
1.09
0.32
-0.47
-1.4
-2.57
-4.1
-6.01
-8.27
-10.76
-13.22
-15.36
-16.92
-17.87
-18.36
-18.76
-19.52
-21.04
-23.54
-26.89
-30.7
-34.28
-36.83
-37.58
-36.12
-32.48
-27.17
-21.03
-14.93
-9.44
-4.78
-0.77
2.95
6.71
10.65
14.73
18.81
22.67
26.13
29.07
31.43
33.2
34.48
35.32
35.74
35.69
35.03
33.62
31.38
28.38
24.81
21.01
17.36
14.24
11.92
10.5
9.89
9.91
10.29
10.71
10.86
10.42
9.04
6.5
2.73
-2.06
-7.42
-12.74
-17.5
-21.36
-24.18
-26.11
-27.44
-28.64
-30.21
-32.57
-35.76
-39.3
-42.23
-43.4
-41.92
-37.55
-30.82
-22.78
-14.59
-7.1
-0.69
4.69
9.31
13.39
17.05
20.23
22.79
24.59
25.53
25.67
25.23
24.49
23.7
23
22.41
21.81
21.14
20.39
19.58
18.79
18.01
17.14
16.04
14.53
12.44
9.78
6.75
3.66
0.93
-1.18
-2.61
-3.51
-4.14
-4.78
-5.55
-6.4
-7.27
-8.08
-8.84
-9.65
-10.58
-11.73
-13.17
-15
-17.4
-20.54
-24.41
-28.82
-33.24
-36.96
-39.15
-39.12
-36.55
-31.57
-24.74
-16.87
-8.87
-1.55
4.63
9.54
13.3
16.2
18.54
20.45
21.95
22.94
23.31
23.04
22.26
21.16
19.98
18.87
17.88
17.01
16.13
15.21
14.25
13.27
12.34
11.51
10.79
10.2
9.76
9.42
9.11
8.72
8.15
7.38
6.5
5.63
4.78
3.91
2.81
1.31
-0.66
-2.97
-5.42
-7.8
-10.03
-12.13
-14.13
-16.02
-17.77
-19.41
-21.15
-23.25
-25.98
-29.23
-32.48
-34.8
-35.21
-33.03
-28.29
-21.67
-14.33
-7.41
-1.69
2.61
5.65
7.79
9.31
10.3
10.81
10.87
10.65
10.37
10.23
10.31
10.53
10.72
10.71
10.41
9.8
8.98
8.13
7.45
7.09
7.11
7.39
7.69
7.74
7.27
6.23
4.75
3.13
1.68
0.63
0
-0.34
-0.65
-1.18
-2.15
-3.65
-5.64
-8.01
-10.53
-13.04
-15.35
-17.36
-19.11
-20.73
-22.41
-24.35
-26.56
-28.79
-30.54
-31.14
-30
-26.88
-21.97
-15.91
-9.52
-3.51
1.72
6.13
9.95
13.42
16.67
19.63
22.09
23.95
25.16
25.86
26.24
26.44
26.54
26.53
26.4
26.16
25.79
25.3
24.66
23.79
22.68
21.31
19.68
17.86
15.88
13.81
11.73
9.76
7.94
6.24
4.52
2.56
0.18
-2.7
-6.07
-9.71
-13.27
-16.39
-18.79
-20.33
-21.11
-21.47
-21.79
-22.5
-23.82
-25.83
-28.42
-31.38
-34.37
-36.92
-38.33
-37.92
-35.24
-30.21
-23.36
-15.61
-7.99
-1.29
4.02
7.88
10.4
11.76
12.17
11.87
11.17
10.4
9.88
9.8
10.17
10.84
11.59
12.12
12.28
12
11.47
11.03
11.08
11.9
13.44
15.37
17.08
17.89
17.34
15.3
12.01
7.96
3.82
0.14
-2.72
-4.61
-5.66
-6.17
-6.47
-6.85
-7.56
-8.71
-10.32
-12.32
-14.56
-16.87
-19.19
-21.55
-24.15
-27.21
-30.82
-34.7
-38.24
-40.59
-40.98
-39
-34.78
-28.89
-22.06
-14.97
-8.04
-1.53
4.41
9.76
14.52
18.93
23.3
27.93
32.87
37.73
41.77
44.2
44.52
42.84
39.8
36.35
33.4
31.43
30.41
29.83
29.02
27.38
24.54
20.4
15.14
9.14
2.99
-2.64
-7.1
-9.89
-10.88
-10.38
-9.03
-7.58
-6.68
-6.58
-7.23
-8.24
-9.11
-9.39
-8.87
-7.65
-6.17
-5.19
-5.55
-7.98
-12.77
-19.62
-27.57
-35.21
-41.09
-44.14
-44.09
-41.41
-37.05
-32.08
-27.22
-22.71
-18.45
-14.23
-10.07
-6.25
-3.15
-1.11
-0.09
0.27
0.59
1.6
3.92
7.94
13.69
20.85
28.73
36.35
42.55
46.31
47.12
45.08
40.97
35.99
31.38
27.99
26.08
25.33
25
24.32
22.77
20.19
16.76
12.77
8.55
4.26
-0.12
-4.63
-9.23
-13.77
-17.93
-21.34
-23.69
-24.94
-25.26
-25.06
-24.81
-24.96
-25.75
-27.08
-28.54
-29.57
-29.54
-28.03
-24.94
-20.56
-15.41
-10.12
-5.2
-0.89
2.8
6.1
9.32
12.74
16.52
20.64
24.91
29.02
32.58
35.24
36.79
37.12
36.25
34.36
31.76
28.79
25.76
22.81
19.9
16.87
13.55
9.91
6.14
2.58
-0.4
-2.49
-3.58
-3.69
-3.07
-2.05
-1.09
-0.67
-1.21
-2.93
-5.71
-9.24
-13.02
-16.68
-19.97
-22.91
-25.68
-28.49
-31.42
-34.25
-36.49
-37.43
-36.38
-32.89
-26.95
-19.01
-9.89
-0.54
8.23
15.78
21.73
25.81
27.86
27.8
25.77
22.21
17.82
13.45
9.84
7.45
6.34
6.27
6.83
7.65
8.44
8.96
9.11
8.83
8.11
6.99
5.54
3.8
1.79
-0.51
-3.04
-5.66
-8.18
-10.28
-11.71
-12.3
-12.05
-11.11
-9.85
-8.75
-8.32
-9.01
-11.04
-14.2
-17.98
-21.59
-24.22
-25.29
-24.65
-22.48
-19.23
-15.39
-11.32
-7.34
-3.63
-0.35
2.34
4.32
5.59
6.21
6.37
6.3
6.25
6.41
6.88
7.53
8.11
8.31
7.98
7.21
6.35
5.73
5.6
5.92
6.4
6.71
6.57
5.89
4.67
2.96
0.83
-1.67
-4.41
-7.27
-10.14
-13.04
-16.13
-19.51
-23.18
-26.8
-29.79
-31.46
-31.29
-29.05
-24.86
-19.04
-12.01
-4.28
3.66
11.31
18.21
23.97
28.38
31.36
32.96
33.28
32.55
31.08
29.32
27.72
26.61
26.02
25.65
25.06
23.9
22.04
19.69
17.21
14.94
12.97
11.12
9.07
6.46
3.12
-0.8
-4.9
-8.58
-11.3
-12.66
-12.64
-11.55
-9.94
-8.5
-7.96
-8.88
-11.52
-15.73
-20.89
-25.94
-29.66
-31.12
-29.87
-26.12
-20.59
-14.2
-7.75
-1.74
3.6
8.17
11.93
14.78
16.64
17.48
17.41
16.67
15.59
14.46
13.46
12.62
11.79
10.8
9.55
8.13
6.82
5.97
5.75
6.05
6.54
6.83
6.62
5.85
4.66
3.26
1.76
0.16
-1.66
-3.82
-6.28
-8.87
-11.24
-13.03
-14.04
-14.33
-14.22
-14.31
-15.29
-17.67
-21.55
-26.52
-31.64
-35.71
-37.67
-36.9
-33.38
-27.65
-20.52
-12.79
-5.12
2.01
8.18
13.05
16.31
17.92
18.15
17.56
16.82
16.48
16.83
17.84
19.27
20.8
22.1
22.83
22.71
21.54
19.31
16.28
12.96
9.97
7.92
7.06
7.32
8.26
9.3
9.93
9.84
8.98
7.54
5.8
3.95
2.03
-0.11
-2.67
-5.67
-8.96
-12.14
-14.74
-16.4
-17.05
-16.87
-16.26
-15.71
-15.63
-16.36
-18.1
-20.84
-24.24
-27.64
-30.13
-30.82
-29.15
-25.1
-19.19
-12.3
-5.35
0.92
6.11
10.15
13.2
15.53
17.4
18.95
20.19
20.97
21.21
20.96
20.43
19.97
19.84
20.08
20.46
20.57
20.07
18.84
16.99
14.86
12.74
10.81
9.08
7.44
5.79
4.08
2.29
0.48
-1.29
-2.98
-4.56
-5.99
-7.25
-8.33
-9.18
-9.79
-10.16
-10.32
-10.32
-10.27
-10.19
-10.05
-9.77
-9.21
-8.34
-7.32
-6.56
-6.54
-7.69
-10.04
-13.25
-16.54
-19
-19.89
-18.91
-16.37
-12.89
-9.17
-5.67
-2.49
0.54
3.64
6.89
10.26
13.69
17.18
20.88
24.93
29.24
33.44
36.92
39.05
39.47
38.23
35.62
32.19
28.35
24.43
20.54
16.72
12.98
9.45
6.36
4.01
2.62
2.17
2.45
3.06
3.56
3.64
3.26
2.49
1.42
0.1
-1.51
-3.48
-5.83
-8.47
-11.26
-14.01
-16.59
-18.9
-20.82
-22.27
-23.3
-24.13
-25.13
-26.67
-28.93
-31.77
-34.57
-36.48
-36.6
-34.42
-29.94
-23.76
-16.85
-10.24
-4.61
-0.18
3.23
5.96
8.25
10.14
11.58
12.47
12.88
13.06
13.25
13.63
14.16
14.71
15.11
15.28
15.12
14.64
13.8
12.59
11.12
9.54
8.13
6.97
6.06
5.18
4.14
2.81
1.28
-0.23
-1.56
-2.61
-3.49
-4.35
-5.36
-6.56
-7.97
-9.57
-11.35
-13.25
-15.08
-16.62
-17.7
-18.31
-18.73
-19.47
-21.03
-23.63
-27.1
-30.73
-33.53
-34.53
-33.11
-29.19
-23.23
-15.98
-8.3
-0.92
5.68
11.22
15.56
18.66
20.63
21.68
22.11
22.19
22.09
21.79
21.2
20.33
19.32
18.46
18.02
18.08
18.44
18.77
18.78
18.41
17.75
16.94
15.99
14.76
13.14
11.08
8.85
6.78
5.17
4.07
3.32
2.63
1.75
0.59
-0.84
-2.5
-4.3
-6.1
-7.8
-9.27
-10.54
-11.78
-13.22
-14.97
-16.97
-19.01
-20.88
-22.58
-24.37
-26.51
-29.11
-31.79
-33.81
-34.36
-32.87
-29.31
-24.14
-18.04
-11.61
-5.25
0.9
6.7
11.95
16.38
19.77
22.1
23.57
24.52
25.19
25.63
25.69
25.22
24.19
22.79
21.22
19.73
18.3
16.77
14.98
12.88
10.66
8.59
6.88
5.69
4.97
4.63
4.53
4.54
4.52
4.33
3.86
3.11
2.18
1.31
0.67
0.37
0.35
0.44
0.36
-0.15
-1.26
-3.01
-5.27
-7.77
-10.16
-12.17
-13.78
-15.21
-16.85
-19.08
-22.1
-25.81
-29.75
-33.21
-35.39
-35.54
-33.27
-28.61
-22.06
-14.56
-7.1
-0.5
4.8
8.82
11.89
14.39
16.61
18.58
20.19
21.28
21.82
21.86
21.62
21.32
21.06
20.77
20.31
19.5
18.29
16.81
15.22
13.63
12.09
10.51
8.84
7.1
5.41
3.87
2.53
1.27
-0.04
-1.53
-3.11
-4.52
-5.45
-5.76
-5.57
-5.24
-5.27
-6.02
-7.62
-9.87
-12.38
-14.74
-16.64
-18
-18.95
-19.79
-20.85
-22.43
-24.7
-27.6
-30.78
-33.61
-35.36
-35.39
-33.31
-29.17
-23.39
-16.66
-9.75
-3.31
2.31
6.95
10.68
13.71
16.32
18.77
21.15
23.48
25.62
27.36
28.52
29.06
29.08
28.73
28.2
27.6
26.94
26.16
25.16
23.9
22.34
20.47
18.36
16.08
13.77
11.6
9.73
8.28
7.26
6.56
5.95
5.17
4.07
2.59
0.87
-0.94
-2.66
-4.21
-5.58
-6.82
-7.97
-8.99
-9.82
-10.39
-10.69
-10.82
-11.01
-11.59
-12.98
-15.47
-19.08
-23.37
-27.47
-30.26
-30.75
-28.42
-23.51
-16.89
-9.7
-3.03
2.49
6.75
9.94
12.35
14.25
15.8
17.14
18.46
19.92
21.51
23.04
24.16
24.51
23.92
22.56
20.87
19.32
18.21
17.62
17.32
16.95
16.06
14.36
11.73
8.35
4.65
1.2
-1.45
-3.03
-3.67
-3.88
-4.27
-5.33
-7.14
-9.32
-11.34
-12.63
-12.92
-12.39
-11.54
-11.03
-11.47
-13.2
-16.15
-19.95
-24.01
-27.72
-30.57
-32.22
-32.53
-31.45
-29.03
-25.39
-20.78
-15.57
-10.21
-5.18
-0.84
2.65
5.34
7.34
8.84
9.89
10.57
10.87
10.76
10.28
9.47
8.42
7.27
6.24
5.52
5.24
5.36
5.59
5.57
5.03
3.9
2.4
0.86
-0.42
-1.33
-1.97
-2.55
-3.24
-4.21
-5.56
-7.44
-9.94
-13.05
-16.51
-19.74
-22.04
-22.72
-21.41
-18.18
-13.5
-8.05
-2.58
2.31
6.3
9.29
11.41
12.87
13.86
14.51
14.82
14.73
14.24
13.36
12.28
11.15
10.14
9.23
8.32
7.19
5.79
4.15
2.52
1.22
0.44
0.13
0.02
-0.26
-1.04
-2.4
-4.18
-6.15
-8.03
-9.69
-11.14
-12.5
-13.87
-15.43
-17.35
-19.78
-22.7
-25.84
-28.59
-30.21
-30.01
-27.69
-23.48
-17.97
-11.88
-5.82
-0.11
5.11
9.84
14.05
17.7
20.69
22.95
24.35
24.8
24.32
23.03
21.29
19.47
17.9
16.65
15.67
14.85
14.12
13.57
13.25
13.14
13.09
12.91
12.46
11.76
10.89
9.89
8.7
7.24
5.54
3.8
2.27
1.08
0.11
-1.02
-2.77
-5.38
-8.77
-12.53
-16.06
-18.92
-20.92
-22.2
-23.13
-24.14
-25.64
-27.88
-30.93
-34.59
-38.4
-41.6
-43.37
-43.01
-40.15
-34.92
-27.95
-20.14
-12.45
-5.56
0.27
5.09
9.24
13.06
16.71
20.19
23.33
25.97
27.97
29.3
29.98
30
29.39
28.26
26.75
25.11
23.57
22.29
21.26
20.44
19.69
18.89
17.96
16.83
15.52
14.05
12.47
10.88
9.38
8.03
6.81
5.68
4.58
3.46
2.29
1.04
-0.3
-1.67
-3.04
-4.26
-5.22
-5.84
-6.1
-6.1
-6.03
-6.14
-6.65
-7.69
-9.25
-11.16
-13.23
-15.32
-17.38
-19.56
-22.13
-25.33
-29.35
-34.05
-39.05
-43.68
-47.15
-48.62
-47.47
-43.5
-37.04
-28.89
-20.06
-11.54
-4
2.28
7.38
11.52
14.94
17.8
20.14
21.97
23.36
24.37
25.06
25.47
25.57
25.34
24.86
24.25
23.72
23.45
23.58
24.08
24.85
25.67
26.28
26.45
26
24.87
23.12
20.97
18.64
16.4
14.4
12.66
11.1
9.54
7.78
5.65
3.1
0.22
-2.74
-5.42
-7.54
-8.99
-9.91
-10.66
-11.7
-13.3
-15.54
-18.18
-20.85
-23.21
-25
-26.26
-27.14
-27.95
-29.05
-30.77
-33.24
-36.26
-39.26
-41.35
-41.62
-39.41
-34.56
-27.49
-19.02
-10.12
-1.61
5.95
12.36
17.61
21.8
25.04
27.37
28.87
29.62
29.77
29.46
28.91
28.3
27.72
27.23
26.8
26.43
26.03
25.53
24.88
24.08
23.06
21.76
20.09
17.96
15.39
12.5
9.55
6.85
4.65
3
1.84
0.97
0.17
-0.71
-1.72
-2.87
-4.05
-5.19
-6.27
-7.29
-8.36
-9.61
-11.15
-12.96
-14.85
-16.57
-17.94
-18.93
-19.69
-20.6
-22.06
-24.33
-27.39
-30.92
-34.23
-36.49
-36.9
-34.94
-30.55
-24.16
-16.55
-8.63
-1.26
5.02
10.03
13.85
16.78
19.12
21.1
22.84
24.35
25.56
26.4
26.84
26.85
26.41
25.52
24.2
22.53
20.69
18.95
17.55
16.69
16.35
16.34
16.33
16.05
15.33
14.26
13.05
11.89
10.91
10.05
9.12
7.93
6.29
4.13
1.54
-1.27
-4
-6.37
-8.28
-9.83
-11.31
-13.14
-15.56
-18.52
-21.68
-24.55
-26.68
-28
-28.75
-29.44
-30.62
-32.66
-35.57
-38.99
-42.27
-44.43
-44.53
-41.78
-35.86
-27.18
-16.81
-6.14
3.44
11.08
16.58
20.38
23.11
25.36
27.35
29.05
30.27
30.85
30.79
30.24
29.39
28.35
27.2
26.01
24.81
23.7
22.73
21.93
21.18
20.31
19.07
17.39
15.29
13.02
10.9
9.2
8.07
7.48
7.19
6.89
6.31
5.27
3.77
1.92
-0.09
-2.16
-4.26
-6.43
-8.65
-10.83
-12.75
-14.26
-15.28
-15.96
-16.63
-17.6
-19.07
-21.03
-23.35
-25.78
-28.12
-30.02
-31.04
-30.58
-28.14
-23.48
-16.84
-8.95
-0.77
6.83
13.28
18.35
22.07
24.59
26.03
26.55
26.34
25.71
24.92
24.21
23.65
23.19
22.71
22.01
20.98
19.52
17.69
15.61
13.55
11.75
10.38
9.44
8.68
7.74
6.26
4.11
1.43
-1.43
-4.01
-6.01
-7.46
-8.61
-9.89
-11.55
-13.54
-15.51
-16.99
-17.63
-17.45
-16.81
-16.23
-16.18
-16.84
-18.12
-19.85
-21.87
-24.03
-26.12
-27.68
-28.1
-26.73
-23.23
-17.78
-10.99
-3.76
3.01
8.76
13.23
16.45
18.59
19.76
20.1
19.69
18.71
17.36
15.9
14.54
13.39
12.44
11.55
10.64
9.61
8.49
7.34
6.28
5.36
4.61
3.95
3.29
2.48
1.4
-0.07
-1.97
-4.22
-6.71
-9.21
-11.54
-13.55
-15.18
-16.47
-17.62
-18.88
-20.6
-23.04
-26.23
-29.86
-33.27
-35.55
-35.86
-33.71
-29.18
-22.98
-16.14
-9.72
-4.45
-0.55
2.23
4.4
6.45
8.68
11.08
13.44
15.41
16.69
17.15
16.89
16.25
15.71
15.7
16.4
17.69
19.13
20.11
20.11
18.89
16.64
13.71
10.54
7.47
4.61
1.99
-0.42
-2.52
-4.21
-5.44
-6.28
-7.02
-7.92
-9.25
-11.02
-13.12
-15.39
-17.79
-20.4
-23.38
-26.74
-30.15
-33.02
-34.52
-34.03
-31.21
-26.3
-19.97
-13.14
-6.81
-1.78
1.42
2.64
2.18
0.54
-1.47
-3.04
-3.39
-1.96
1.48
6.61
12.49
17.84
21.25
21.9
19.82
16.03
12.06
9.29
8.45
9.3
10.98
12.39
12.77
11.93
10.18
8.05
6.09
4.62
3.83
3.7
4.13
4.98
6.03
7.02
7.68
7.77
7.14
5.87
4.19
2.46
0.96
-0.17
-1.15
-2.42
-4.54
-7.96
-12.64
-18.04
-23.09
-26.52
-27.2
-24.66
-19.13
-11.58
-3.35
4.29
10.45
14.86
17.73
19.55
20.75
21.57
22.03
22.05
21.53
20.53
19.25
17.93
16.77
15.85
15.08
14.38
13.63
12.8
11.93
11.08
10.33
9.66
8.99
8.18
7.08
5.58
3.73
1.69
-0.31
-2.07
-3.57
-4.95
-6.45
-8.3
-10.52
-12.94
-15.26
-17.17
-18.45
-19.05
-19.03
-18.6
-17.97
-17.52
-17.72
-18.99
-21.55
-25.18
-29.04
-31.99
-32.86
-30.98
-26.33
-19.61
-11.9
-4.21
2.69
8.54
13.35
17.27
20.38
22.73
24.28
25.06
25.21
24.83
24.05
22.92
21.46
19.77
17.99
16.36
15.04
14.12
13.54
13.18
12.91
12.65
12.37
12.02
11.48
10.6
9.25
7.42
5.25
3.02
0.99
-0.68
-1.94
-2.89
-3.68
-4.45
-5.28
-6.23
-7.37
-8.83
-10.72
-13.07
-15.75
-18.42
-20.66
-22.18
-22.91
-23.13
-23.43
-24.37
-26.31
-29.17
-32.35
-34.83
-35.5
-33.51
-28.58
-21.13
-12.14
-2.78
5.9
13.2
18.9
23.09
26.08
28.25
29.87
31.1
31.92
32.26
32.05
31.27
30.07
28.62
27.06
25.4
23.55
21.37
18.89
16.24
13.67
11.36
9.37
7.62
5.94
4.18
2.27
0.17
-2.05
-4.27
-6.28
-7.87
-8.85
-9.22
-9.12
-8.88
-8.86
-9.27
-10.15
-11.32
-12.55
-13.72
-14.83
-15.99
-17.3
-18.81
-20.42
-22.07
-23.67
-25.28
-26.95
-28.73
-30.55
-32.19
-33.3
-33.56
-32.74
-30.88
-28.22
-25.1
-21.7
-17.97
-13.68
-8.7
-3.27
1.98
6.23
8.9
10.01
10.27
10.74
12.37
15.52
19.91
24.7
28.97
32.05
33.68
34.01
33.38
32.11
30.34
28.06
25.1
21.45
17.28
13.01
9.17
6.22
4.39
3.56
3.36
3.3
2.98
2.24
1.19
0.06
-0.86
-1.51
-2.04
-2.86
-4.35
-6.7
-9.78
-13.16
-16.25
-18.6
-20.05
-20.78
-21.28
-22.11
-23.71
-26.24
-29.32
-32.16
-33.73
-33.06
-29.69
-23.84
-16.4
-8.55
-1.38
4.52
9.07
12.56
15.41
17.87
20.03
21.78
23.05
23.79
24.07
23.94
23.44
22.57
21.35
19.82
18.2
16.69
15.47
14.59
13.9
13.18
12.25
11.06
9.81
8.76
8.19
8.16
8.53
8.99
9.25
9.13
8.6
7.77
6.71
5.43
3.87
1.91
-0.51
-3.36
-6.51
-9.78
-12.92
-15.62
-17.63
-18.88
-19.49
-20
-21.12
-23.57
-27.78
-33.6
-40.17
-46.17
-50.09
-50.71
-47.44
-40.56
-31.12
-20.6
-10.48
-1.78
5.21
10.83
15.83
20.87
26.12
31.21
35.37
37.79
38
36.15
32.85
29.07
25.63
23.17
21.85
21.54
21.87
22.41
22.81
22.8
22.31
21.32
19.92
18.17
16.12
13.81
11.31
8.79
6.41
4.31
2.53
1.08
-0.16
-1.29
-2.38
-3.4
-4.31
-4.98
-5.26
-5.1
-4.61
-4.11
-4.06
-4.85
-6.71
-9.46
-12.53
-15.19
-16.7
-16.61
-14.84
-11.77
-7.86
-3.63
0.55
4.49
8.05
11.05
13.34
14.82
15.52
15.64
15.49
15.32
15.18
14.98
14.53
13.8
12.87
11.97
11.27
10.81
10.45
10.02
9.3
8.26
6.95
5.46
3.84
2.11
0.23
-1.8
-3.91
-6.06
-8.21
-10.39
-12.58
-14.7
-16.56
-18.01
-19.01
-19.74
-20.6
-22.1
-24.61
-28.19
-32.39
-36.34
-38.94
-39.22
-36.68
-31.53
-24.58
-16.97
-9.76
-3.53
1.67
6.05
9.8
12.92
15.2
16.46
16.78
16.49
16.03
15.73
15.61
15.46
14.98
14.08
12.84
11.52
10.38
9.51
8.82
8.11
7.2
5.98
4.48
2.74
0.71
-1.69
-4.6
-8.01
-11.67
-15.07
-17.63
-18.95
-19
-18.16
-17.07
-16.31
-16.22
-16.87
-18.1
-19.72
-21.49
-23.17
-24.39
-24.79
-24.06
-22.07
-18.98
-15.03
-10.51
-5.58
-0.35
5.15
10.82
16.45
21.7
26.2
29.57
31.51
31.81
30.5
27.81
24.11
19.9
15.72
12.07
9.36
7.85
7.58
8.32
9.61
10.87
11.64
11.7
11.11
10.25
9.49
9.09
9
8.87
8.21
6.65
4.11
0.81
-2.73
-6.03
-8.74
-10.68
-11.84
-12.28
-12.16
-11.78
-11.69
-12.5
-14.7
-18.26
-22.45
-26
-27.61
-26.45
-22.61
-16.99
-10.87
-5.43
-1.29
1.62
3.73
5.56
7.4
9.32
11.23
13.08
14.86
16.58
18.2
19.57
20.58
21.07
21.06
20.63
19.96
19.23
18.6
18.17
17.89
17.68
17.36
16.72
15.64
14.07
12.13
10.02
7.96
6.08
4.37
2.66
0.64
-1.95
-5.21
-8.98
-12.85
-16.34
-19.05
-20.88
-21.96
-22.59
-22.96
-23.22
-23.37
-23.55
-24.09
-25.42
-27.84
-31.22
-34.95
-37.86
-38.82
-37.01
-32.33
-25.41
-17.3
-9.11
-1.6
4.91
10.44
15.11
18.99
22.03
24.09
25.16
25.31
24.76
23.76
22.48
21.05
19.58
18.23
17.18
16.52
16.24
16.11
15.83
15.08
13.57
11.36
8.66
5.88
3.49
1.86
1.15
1.24
1.82
2.48
2.91
3
2.83
2.6
2.45
2.37
2.23
1.83
1.05
-0.12
-1.58
-3.2
-4.89
-6.63
-8.47
-10.41
-12.4
-14.5
-16.82
-19.55
-22.8
-26.42
-29.85
-32.21
-32.54
-30.2
-25.22
-18.36
-10.78
-3.71
2.11
6.51
9.82
12.53
14.9
16.88
18.21
18.69
18.39
17.68
16.98
16.55
16.37
16.19
15.74
14.99
14.12
13.45
13.25
13.47
13.81
13.86
13.33
12.21
10.79
9.44
8.46
7.88
7.49
6.95
6.01
4.6
2.91
1.17
-0.45
-1.9
-3.3
-4.82
-6.54
-8.44
-10.38
-12.17
-13.61
-14.59
-15.12
-15.29
-15.38
-15.76
-16.86
-19.06
-22.48
-26.88
-31.61
-35.71
-38.2
-38.35
-35.92
-31.13
-24.61
-17.16
-9.52
-2.23
4.4
10.23
15.2
19.27
22.36
24.46
25.54
25.78
25.39
24.64
23.73
22.74
21.62
20.34
18.89
17.41
16.18
15.4
15.2
15.48
15.95
16.23
15.96
14.95
13.17
10.83
8.16
5.42
2.79
0.38
-1.74
-3.5
-4.89
-5.9
-6.7
-7.51
-8.55
-9.98
-11.78
-13.76
-15.63
-17.2
-18.38
-19.29
-20.17
-21.31
-23.02
-25.49
-28.71
-32.43
-36.02
-38.63
-39.3
-37.33
-32.56
-25.48
-17.18
-8.89
-1.65
4.08
8.37
11.62
14.19
16.21
17.57
18.05
17.6
16.27
14.38
12.3
10.44
9.22
9.04
10.09
12.32
15.26
18.16
20.21
20.94
20.35
18.93
17.31
15.96
15.04
14.38
13.73
12.94
12.06
11.21
10.53
9.97
9.38
8.63
7.65
6.46
5.15
3.79
2.31
0.68
-1.14
-3.11
-5.2
-7.36
-9.64
-12.02
-14.48
-17.04
-19.77
-22.79
-26.26
-30.07
-33.76
-36.46
-37.21
-35.31
-30.67
-23.85
-15.89
-7.85
-0.58
5.5
10.26
13.78
16.24
17.87
18.94
19.67
20.24
20.72
21.05
21.15
20.95
20.44
19.64
18.62
17.44
16.19
15
13.91
12.94
12.01
11.04
10
8.95
7.9
6.8
5.51
3.87
1.93
-0.08
-1.72
-2.6
-2.58
-1.91
-1.13
-0.89
-1.65
-3.48
-6.12
-9.02
-11.6
-13.51
-14.68
-15.42
-16.17
-17.44
-19.62
-22.87
-27.01
-31.49
-35.47
-37.9
-37.89
-34.96
-29.26
-21.58
-13.09
-4.99
1.94
7.37
11.42
14.39
16.52
17.86
18.41
18.19
17.35
16.23
15.24
14.7
14.66
14.99
15.37
15.57
15.54
15.4
15.33
15.37
15.38
15.1
14.28
12.82
10.81
8.5
6.16
4.02
2.2
0.84
-0.04
-0.41
-0.35
-0.05
0.24
0.22
-0.3
-1.43
-3.11
-5.16
-7.33
-9.32
-10.86
-11.76
-12.05
-11.97
-12.01
-12.74
-14.7
-18.12
-22.76
-27.94
-32.59
-35.59
-36.01
-33.44
-28.05
-20.65
-12.36
-4.36
2.46
7.67
11.29
13.61
15.07
16.03
16.77
17.42
17.97
18.37
18.5
18.23
17.47
16.19
14.53
12.71
10.97
9.53
8.44
7.71
7.26
7.03
6.95
6.96
7
6.99
6.93
6.75
6.42
5.87
5.05
3.96
2.68
1.37
0.2
-0.77
-1.53
-2.2
-2.96
-3.92
-5.16
-6.62
-8.18
-9.65
-10.91
-11.89
-12.71
-13.63
-15.03
-17.19
-20.24
-23.98
-27.91
-31.29
-33.27
-33.16
-30.61
-25.77
-19.29
-12.1
-5.2
0.73
5.41
8.96
11.65
13.75
15.38
16.55
17.26
17.63
17.82
17.99
18.23
18.47
18.52
18.23
17.51
16.49
15.44
14.74
14.67
15.26
16.23
17.06
17.19
16.26
14.24
11.41
8.29
5.4
3.1
1.51
0.55
-0.05
-0.64
-1.55
-2.97
-4.95
-7.33
-9.78
-11.98
-13.74
-14.99
-15.88
-16.6
-17.41
-18.61
-20.5
-23.27
-26.79
-30.56
-33.68
-35.14
-34.18
-30.53
-24.62
-17.29
-9.62
-2.49
3.48
8.1
11.42
13.65
15.06
15.94
16.47
16.82
17.06
17.28
17.57
17.99
18.51
19.05
19.42
19.49
19.16
18.45
17.43
16.32
15.28
14.37
13.6
12.82
11.87
10.6
8.93
6.92
4.69
2.42
0.28
-1.62
-3.23
-4.6
-5.81
-6.98
-8.24
-9.66
-11.21
-12.74
-14.06
-15.04
-15.68
-16.18
-16.85
-18.08
-20.22
-23.45
-27.59
-32.03
-35.83
-37.88
-37.28
-33.76
-27.73
-20.21
-12.43
-5.46
0.11
4.2
7.06
9.05
10.5
11.61
12.49
13.12
13.54
13.7
13.7
13.64
13.64
13.67
13.46
12.64
10.83
7.94
4.36
0.89
-1.52
-2.19
-1.04
1.25
3.52
4.5
3.36
0.07
-4.58
-9.3
-12.66
-13.63
-11.92
-7.93
-2.73
2.34
6.02
7.54
6.8
4.53
2.04
0.72
1.5
4.34
8.1
11.02
11.36
8.33
2.44
-4.61
-10.56
-13.47
-12.4
-7.58
-0.18
8.2
15.97
21.88
25.05
25.13
22.34
17.56
12.19
7.89
6.03
7.2
11.05
16.39
21.68
25.49
26.77
25.06
20.4
13.34
4.94
-3.28
-9.67
-12.93
-12.62
-9.5
-5.25
-1.85
-0.79
-2.63
-6.91
-12.63
-18.78
-24.61
-29.69
-33.72
-36.44
-37.73
-37.96
-38.07
-39.44
-43.11
-48.91
-55.01
-58.3
-55.56
-44.93
-26.79
-3.76
20.45
42.42
60.15
73.22
82.1
87.37
89.11
87.12
81.44
72.84
62.84
53.19
45.16
39.1
34.39
29.93
24.75
18.5
11.61
4.96
-0.51
-4.39
-7.03
-9.29
-12.15
-16.07
-20.85
-25.76
-30.04
-33.33
-35.8
-38.06
-40.6
-43.7
-47.2
-50.73
-53.94
-56.57
-58.5
-59.68
-60.21
-60.3
-60.35
-60.75
-61.6
-62.53
-62.79
-61.51
-58.13
-52.6
-45.42
-37.35
-29.09
-21.04
-13.31
-5.92
0.89
6.64
10.65
12.3
11.43
8.46
4.42
0.63
-1.56
-1.06
3.03
11.52
25.21
44.53
68.92
96.33
123.19
145.19
158.72
162.03
155.73
142.25
124.55
104.99
84.82
64.62
44.98
27.01
12.18
1.7
-4.15
-6.27
-6.47
-6.64
-8.08
-11.2
-15.46
-19.79
-23.11
-24.66
-24.28
-22.37
-19.74
-17.26
-15.62
-15.13
-15.71
-17
-18.46
-19.56
-19.82
-18.91
-16.82
-13.76
-10.16
-6.52
-3.25
-0.48
1.99
4.59
7.85
12.15
17.57
23.79
30.17
35.87
39.96
41.6
40.12
35.23
27.11
16.54
4.75
-6.77
-16.62
-23.87
-28.12
-29.55
-28.66
-26.09
-22.4
-18.03
-13.31
-8.59
-4.29
-0.9
1.05
1.13
-0.8
-4.51
-9.3
-14.13
-17.89
-19.81
-19.62
-17.63
-14.63
-11.49
-8.93
-7.29
-6.5
-5.98
-4.85
-2.05
3.33
11.64
22.43
34.42
45.78
54.53
59.19
58.98
53.99
45.02
33.4
20.75
8.7
-1.32
-8.25
-11.61
-11.54
-8.8
-4.64
-0.73
1.14
-0.56
-6.71
-17.06
-30.12
-43.46
-54.32
-60.51
-61.08
-56.72
-49.35
-41.55
-35.54
-32.56
-32.71
-35.11
-38.52
-41.75
-43.92
-44.39
-42.76
-38.75
-32.44
-24.41
-15.7
-7.61
-1.16
3.21
5.82
7.37
8.63
10.05
11.52
12.68
13.11
12.64
11.37
9.73
8.18
7.07
6.54
6.42
6.37
6.02
5.08
3.47
1.31
-1.18
-3.79
-6.48
-9.32
-12.44
-15.97
-19.93
-24.16
-28.32
-32.08
-35.21
-37.82
-40.41
-43.67
-48.1
-53.58
-59.04
-62.63
-62.38
-56.97
-46.4
-32.24
-17.07
-3.75
5.56
9.96
10.06
7.4
3.9
1.18
0.12
0.79
2.73
5.17
7.34
8.65
8.91
8.64
9.42
13.69
24
41.64
65.51
91.72
114.63
128.85
131.32
122.39
105.44
85.24
66.03
50.37
38.95
31.3
26.73
24.58
24.3
25.13
25.98
25.73
23.57
19.42
13.89
8
2.64
-1.88
-6.07
-11.1
-18.3
-28.53
-41.67
-56.32
-70.13
-80.38
-84.8
-82.08
-72.25
-56.54
-37.09
-16.7
1.71
15.45
22.57
22.36
15.5
4.01
-9.17
-20.78
-27.98
-28.76
-22.33
-9.23
8.57
28.09
45.84
58.71
64.72
63.52
56.13
44.41
30.44
16.03
2.63
-8.73
-17.4
-23.22
-26.68
-28.66
-30.26
-32.09
-34.03
-35.25
-34.69
-31.75
-26.67
-20.62
-15.16
-11.73
-10.9
-12.07
-13.53
-13.14
-9.21
-1.35
9.11
19.5
26.85
29.05
25.67
18.05
8.63
-0.02
-5.99
-8.34
-6.79
-1.38
7.62
19.55
32.98
45.67
54.91
58.36
54.89
45.16
31.45
17
4.91
-2.82
-5.78
-5
-2.29
0.51
2.15
2.1
0.33
-2.9
-7.35
-12.65
-18.18
-22.95
-25.74
-25.61
-22.32
-16.59
-10.05
-4.7
-2.39
-4.3
-10.53
-20.15
-31.26
-41.48
-48.49
-50.6
-47.17
-38.74
-26.77
-13.23
-0.01
11.45
20.29
26.19
29.2
29.53
27.54
23.66
18.55
13.14
8.62
6.17
6.45
9.24
13.24
16.5
17.19
14.45
8.73
1.7
-4.55
-8.35
-9.16
-7.53
-4.67
-1.89
-0.03
0.6
0.11
-1.21
-3.18
-5.73
-8.79
-12.21
-15.65
-18.61
-20.68
-21.69
-21.74
-21.19
-20.41
-19.65
-18.83
-17.7
-15.91
-13.22
-9.64
-5.54
-1.49
1.78
3.65
3.85
2.48
0.06
-2.71
-5.2
-6.98
-7.88
-7.98
-7.45
-6.46
-5.11
-3.48
-1.6
0.51
2.85
5.32
7.68
9.59
10.62
10.44
8.86
5.88
1.68
-3.45
-9.12
-14.86
-20.29
-25.14
-29.42
-33.2
-36.53
-39.24
-40.87
-40.77
-38.44
-33.76
-27.09
-19.16
-10.81
-2.75
4.59
10.99
16.38
20.75
24.09
26.4
27.72
28.18
27.94
27.2
26.14
24.87
23.43
21.79
19.96
17.98
15.96
14.04
12.43
11.23
10.4
9.83
9.29
8.55
7.39
5.74
3.68
1.44
-0.67
-2.42
-3.74
-4.82
-6.02
-7.79
-10.49
-14.24
-18.87
-23.77
-28.09
-30.81
-31.08
-28.49
-23.24
-16.1
-8.2
-0.66
5.77
10.76
14.46
17.16
19.14
20.55
21.42
21.75
21.56
20.89
19.8
18.36
16.65
14.85
13.12
11.68
10.64
10.01
9.64
9.31
8.82
8.06
6.99
5.58
3.81
1.67
-0.81
-3.49
-6.09
-8.31
-9.88
-10.72
-11.03
-11.19
-11.67
-12.83
-14.83
-17.59
-20.92
-24.55
-28.04
-30.9
-32.48
-32.16
-29.52
-24.56
-17.73
-9.86
-1.9
5.4
11.56
16.46
20.14
22.67
24.03
24.16
23.11
21.17
18.84
16.63
14.89
13.65
12.66
11.6
10.28
8.81
7.53
6.81
6.82
7.47
8.31
8.92
9.02
8.67
8.15
7.75
7.6
7.46
6.94
5.64
3.46
0.61
-2.45
-5.29
-7.67
-9.61
-11.35
-13.17
-15.38
-18.14
-21.51
-25.35
-29.21
-32.41
-34.12
-33.65
-30.7
-25.45
-18.49
-10.61
-2.59
5.01
11.7
17.1
20.96
23.18
23.91
23.52
22.6
21.65
21.04
20.78
20.56
19.96
18.6
16.39
13.58
10.78
8.56
7.34
7.12
7.48
7.8
7.56
6.55
4.92
3.11
1.58
0.65
0.36
0.54
0.85
0.93
0.54
-0.41
-1.8
-3.44
-5.16
-6.84
-8.54
-10.37
-12.47
-14.94
-17.9
-21.4
-25.42
-29.7
-33.62
-36.34
-36.93
-34.79
-29.88
-22.78
-14.49
-6.04
1.7
8.28
13.56
17.61
20.6
22.76
24.32
25.48
26.32
26.79
26.83
26.41
25.62
24.65
23.74
22.98
22.32
21.61
20.73
19.71
18.65
17.68
16.81
15.84
14.51
12.55
9.85
6.58
3.2
0.19
-2.08
-3.52
-4.38
-5.02
-5.82
-6.92
-8.3
-9.79
-11.27
-12.73
-14.22
-15.77
-17.36
-18.86
-20.18
-21.36
-22.61
-24.27
-26.58
-29.61
-33.05
-36.28
-38.46
-38.79
-36.8
-32.45
-26.14
-18.58
-10.52
-2.64
4.59
10.74
15.48
18.54
19.81
19.51
18.2
16.67
15.69
15.79
17.08
19.2
21.53
23.35
24.09
23.5
21.75
19.34
16.99
15.29
14.5
14.51
14.74
14.49
13.19
10.62
6.94
2.71
-1.4
-4.79
-7.06
-8.14
-8.19
-7.58
-6.8
-6.27
-6.21
-6.65
-7.36
-8
-8.29
-8.13
-7.73
-7.56
-8.19
-10.09
-13.35
-17.51
-21.77
-25.09
-26.56
-25.7
-22.59
-17.73
-11.92
-5.9
-0.22
4.92
9.56
13.81
17.74
21.24
24.17
26.34
27.71
28.38
28.56
28.44
28.17
27.76
27.16
26.32
25.28
24.11
22.87
21.6
20.24
18.65
16.73
14.49
12.06
9.62
7.27
4.95
2.53
-0.14
-3.06
-6.04
-8.86
-11.35
-13.46
-15.29
-16.91
-18.29
-19.28
-19.69
-19.47
-18.71
-17.62
-16.49
-15.65
-15.45
-16.25
-18.23
-21.3
-24.93
-28.14
-29.85
-29.16
-25.71
-19.81
-12.38
-4.57
2.61
8.54
13.03
16.16
18.15
19.16
19.29
18.61
17.25
15.46
13.52
11.75
10.34
9.37
8.84
8.67
8.72
8.89
9.11
9.34
9.57
9.73
9.74
9.42
8.61
7.28
5.53
3.6
1.83
0.51
-0.31
-0.87
-1.63
-3.05
-5.37
-8.53
-12.09
-15.5
-18.22
-20.01
-20.93
-21.41
-22.03
-23.43
-25.89
-29.28
-32.99
-36
-37.3
-36.16
-32.46
-26.64
-19.52
-12.04
-4.89
1.53
7.13
12.02
16.35
20.16
23.41
25.98
27.71
28.53
28.51
27.78
26.53
24.85
22.79
20.29
17.42
14.28
11.15
8.36
6.18
4.72
3.89
3.46
3.11
2.56
1.7
0.59
-0.63
-1.73
-2.62
-3.38
-4.22
-5.39
-7.02
-9.1
-11.41
-13.66
-15.6
-17.02
-17.9
-18.27
-18.27
-18.15
-18.24
-18.91
-20.33
-22.44
-24.74
-26.45
-26.72
-24.93
-20.92
-15.05
-8.1
-0.97
5.51
10.83
14.85
17.66
19.49
20.56
21.04
21.02
20.64
20.09
19.61
19.41
19.53
19.83
20.03
19.86
19.19
18.13
16.91
15.79
14.95
14.37
13.96
13.53
12.89
11.94
10.64
9.02
7.14
5.09
3.01
0.93
-1.12
-3.27
-5.62
-8.23
-11.06
-13.97
-16.73
-19.11
-20.96
-22.16
-22.71
-22.72
-22.35
-21.83
-21.51
-21.77
-22.93
-25.04
-27.68
-30.04
-31.1
-30.05
-26.55
-20.95
-14.05
-6.87
-0.24
5.46
10.11
13.83
16.72
18.78
19.96
20.29
19.88
18.95
17.75
16.51
15.4
14.49
13.8
13.31
13.04
12.99
13.12
13.37
13.61
13.69
13.51
13.07
12.51
12.01
11.76
11.73
11.72
11.32
10.19
8.14
5.34
2.19
-0.78
-3.18
-4.94
-6.23
-7.47
-8.98
-10.91
-13.16
-15.4
-17.29
-18.57
-19.22
-19.45
-19.65
-20.31
-21.77
-24.18
-27.31
-30.55
-33.03
-33.87
-32.41
-28.47
-22.46
-15.17
-7.59
-0.51
5.53
10.36
13.97
16.53
18.21
19.15
19.59
19.68
19.6
19.4
19.07
18.54
17.72
16.61
15.28
13.95
12.79
11.9
11.28
10.83
10.41
9.97
9.49
8.98
8.53
8.17
7.99
8.03
8.28
8.6
8.71
8.31
7.14
5.21
2.68
-0.13
-2.96
-5.64
-8.11
-10.33
-12.27
-13.85
-15.01
-15.84
-16.4
-16.8
-17.2
-17.78
-18.8
-20.56
-23.16
-26.35
-29.48
-31.58
-31.73
-29.42
-24.76
-18.4
-11.28
-4.25
2.12
7.52
11.91
15.27
17.63
19.09
19.83
20.03
19.94
19.71
19.3
18.73
17.97
17.01
15.92
14.73
13.43
12.03
10.62
9.34
8.31
7.56
6.89
6.04
4.83
3.28
1.6
0.09
-1.02
-1.81
-2.45
-3.22
-4.26
-5.57
-7.03
-8.51
-9.97
-11.38
-12.71
-13.92
-14.89
-15.49
-15.75
-15.87
-16.28
-17.53
-20.09
-24.04
-28.91
-33.7
-37.07
-37.9
-35.57
-30.29
-22.95
-14.79
-6.97
-0.21
5.22
9.42
12.71
15.36
17.56
19.43
21.05
22.43
23.55
24.32
24.6
24.24
23.12
21.32
19.05
16.69
14.6
13.15
12.48
12.53
13.03
13.61
13.92
13.79
13.25
12.51
11.87
11.58
11.72
12.14
12.51
12.41
11.55
9.81
7.32
4.41
1.38
-1.52
-4.17
-6.59
-8.85
-11
-13.12
-15.35
-17.96
-21.18
-25.04
-29.13
-32.72
-34.84
-34.71
-32.01
-27.04
-20.61
-13.69
-7.11
-1.39
3.33
7.2
10.48
13.41
16.18
18.81
21.22
23.27
24.78
25.61
25.68
24.94
23.41
21.27
18.72
16.1
13.72
11.82
10.48
9.62
9.05
8.57
8.13
7.7
7.37
7.13
6.88
6.44
5.6
4.16
2.07
-0.53
-3.34
-6
-8.33
-10.33
-12.22
-14.28
-16.62
-19.17
-21.73
-24.12
-26.33
-28.45
-30.5
-32.17
-32.83
-31.8
-28.68
-23.63
-17.38
-10.89
-5.02
-0.16
3.76
7.02
9.92
12.53
14.71
16.17
16.8
16.75
16.38
16.13
16.4
17.35
18.77
20.21
21.21
21.41
20.77
19.48
17.94
16.41
15.01
13.64
12.04
10.02
7.54
4.82
2.2
0.01
-1.6
-2.76
-3.73
-4.87
-6.37
-8.15
-9.92
-11.32
-12.09
-12.26
-12.1
-11.97
-12.27
-13.25
-15
-17.51
-20.6
-23.96
-27.05
-29.16
-29.67
-28.28
-25.05
-20.49
-15.27
-9.93
-4.79
0.05
4.53
8.59
12.06
14.88
17.06
18.69
19.91
20.78
21.26
21.3
20.88
20.04
18.88
17.42
15.67
13.71
11.7
9.82
8.28
7.15
6.35
5.68
4.99
4.19
3.43
2.85
2.55
2.55
2.68
2.62
2.18
1.2
-0.37
-2.38
-4.68
-6.98
-9.03
-10.69
-12.08
-13.55
-15.52
-18.32
-21.81
-25.39
-28.11
-29.04
-27.61
-23.91
-18.56
-12.51
-6.62
-1.48
2.61
5.62
7.64
8.73
9.08
8.93
8.61
8.48
8.78
9.57
10.75
12.19
13.79
15.48
17.2
18.8
20.04
20.73
20.82
20.43
19.9
19.41
19.04
18.59
17.76
16.29
14.15
11.52
8.7
5.89
3.1
0.21
-2.93
-6.35
-9.89
-13.21
-15.97
-17.98
-19.26
-20.09
-20.86
-21.95
-23.68
-26.17
-29.36
-32.94
-36.29
-38.57
-38.95
-36.86
-32.22
-25.52
-17.62
-9.51
-1.97
4.56
9.99
14.42
18.02
20.92
23.22
24.96
26.13
26.75
26.77
26.19
25.06
23.46
21.54
19.39
17.14
14.91
12.89
11.31
10.3
9.92
9.97
10.17
10.19
9.83
9.09
8.15
7.16
6.2
5.21
4.07
2.68
1.03
-0.83
-2.81
-4.81
-6.78
-8.71
-10.58
-12.46
-14.46
-16.83
-19.79
-23.53
-28.03
-32.96
-37.69
-41.46
-43.56
-43.5
-41.17
-36.84
-31.03
-24.41
-17.54
-10.78
-4.27
1.88
7.55
12.44
16.33
19.27
21.68
24.29
27.92
33.08
39.72
47.3
54.91
61.42
65.78
66.96
64.24
57.4
47.13
35.02
23.43
14.64
10.21
10.35
13.84
18.52
22.08
22.79
20.02
14.31
6.85
-0.98
-8.19
-14.46
-19.96
-25.07
-30.05
-34.78
-38.86
-41.85
-43.63
-44.39
-44.68
-45.09
-45.97
-47.34
-48.76
-49.19
-47.33
-41.83
-31.88
-17.73
-0.9
16.09
30.47
40.22
44.65
44.48
41.25
36.59
31.59
26.72
22.11
17.84
14.09
11
8.48
6.17
3.56
0.31
-3.58
-7.7
-11.52
-14.7
-17.37
-20.15
-24.01
-29.8
-37.96
-48.25
-59.69
-70.93
-80.71
-88.2
-93.26
-96.45
-98.66
-100.84
-103.57
-106.86
-110.09
-112.1
-111.71
-108.27
-102.06
-94.37
-86.93
-81.05
-76.94
-73.57
-69.2
-62.37
-52.6
-40.61
-27.92
-16.15
-6.57
-0.11
2.44
0.4
-6.4
-16.91
-28.37
-36.75
-38
-29.68
-12.08
11.64
36.52
57.36
70.42
74.21
69.57
59.06
45.93
33.14
22.68
15.16
9.9
5.49
0.6
-5.37
-11.83
-17.33
-20.2
-19.36
-14.83
-7.91
-0.75
4.26
5.32
1.85
-5.21
-13.64
-20.47
-22.84
-18.8
-7.76
9.5
31.28
55.53
80.34
104.19
125.97
145.01
161.07
174.41
185.72
195.78
204.91
212.56
217.43
217.96
213.31
203.94
191.71
179.15
168.42
160.33
154.13
147.93
139.65
127.91
112.42
94.03
74.15
54.28
35.65
19.07
4.96
-6.55
-15.64
-22.89
-29.15
-35.52
-42.88
-51.52
-60.83
-69.41
-75.59
-77.99
-76.14
-70.65
-62.89
-54.48
-46.8
-40.66
-36.43
-34.15
-33.71
-34.92
-37.37
-40.52
-43.71
-46.4
-48.24
-49.09
-48.94
-47.76
-45.57
-42.29
-38.05
-33.11
-27.9
-23
-18.99
-16.4
-15.58
-16.7
-19.6
-23.94
-29.23
-35
-40.86
-46.57
-52.07
-57.3
-62.15
-66.2
-68.71
-68.65
-65
-57.28
-45.85
-32.07
-17.81
-4.97
5.23
12.53
17.41
20.64
22.79
24.01
24.13
23
20.71
17.59
14.2
11.08
8.68
7.28
7.11
8.2
10.4
13.23
15.94
17.68
17.71
15.64
11.51
5.82
-0.62
-6.92
-12.24
-15.99
-17.99
-18.56
-18.48
-18.86
-20.84
-25.06
-31.28
-38.13
-43.35
-44.41
-39.39
-27.72
-10.46
9.91
30.24
47.67
60.28
67.46
69.72
68.16
64.03
58.33
51.76
44.78
37.76
31.06
25.06
20.07
16.2
13.3
11.07
9.15
7.37
5.82
4.69
4.19
4.23
4.36
3.92
2.27
-0.94
-5.61
-11.21
-17.02
-22.37
-26.85
-30.34
-32.97
-35.07
-37.1
-39.44
-42.24
-45.22
-47.51
-47.88
-45.11
-38.44
-28.1
-15.18
-1.37
11.66
22.72
31.32
37.57
41.73
44.06
44.62
43.42
40.63
36.62
31.93
27.09
22.44
18.04
13.8
9.57
5.35
1.35
-2.03
-4.41
-5.47
-5.23
-3.96
-2.25
-0.83
-0.42
-1.58
-4.47
-8.84
-14
-19.15
-23.59
-27
-29.5
-31.57
-33.88
-37.01
-41.35
-47.05
-53.94
-61.46
-68.59
-73.93
-75.91
-73.29
-65.61
-53.57
-38.83
-23.7
-10.38
-0.3
6
8.79
8.58
5.73
0.39
-7.1
-15.71
-23.31
-27
-24.05
-13.01
5.41
28.38
51.8
71.66
85.25
91.66
91.77
87.45
80.96
74.57
70.52
70.75
76.32
86.6
98.73
108.16
110.11
101.89
84.21
61.24
38.81
21.86
12.35
8.61
6.71
2.46
-6.53
-20.17
-36.4
-52.38
-65.68
-74.76
-78.8
-77.25
-69.51
-55.3
-35.64
-13.41
6.67
19.46
21.46
12.54
-3.6
-20.89
-33.44
-37.93
-34.72
-27.01
-18.94
-13.52
-11.67
-12.29
-13.34
-12.87
-9.79
-4.19
2.88
9.62
14.18
15.22
12.37
6.45
-0.91
-7.83
-12.84
-15.26
-15.19
-13.18
-10.05
-6.71
-4.17
-3.34
-4.97
-9.31
-15.85
-23.32
-29.92
-33.76
-33.38
-28.2
-18.6
-5.88
8.1
21.31
31.97
38.9
41.84
41.39
38.89
35.93
33.74
32.77
32.61
32.23
30.59
27.22
22.34
16.74
11.32
6.67
2.97
0.24
-1.57
-2.44
-2.27
-1.1
0.74
2.7
4.17
4.73
4.32
3.25
1.98
0.94
0.21
-0.51
-1.78
-4.15
-7.88
-12.89
-18.75
-24.76
-30.15
-34.03
-35.54
-33.97
-29.03
-21.13
-11.42
-1.55
6.86
12.67
15.5
15.68
13.96
11.21
8.2
5.65
4.14
4
5.09
6.78
7.95
7.52
4.73
-0.43
-7.4
-15.14
-22.68
-29.3
-34.62
-38.58
-41.26
-42.77
-43.3
-43.11
-42.62
-42.48
-43.5
-46.44
-51.81
-59.53
-68.82
-78.36
-86.74
-92.89
-96.59
-98.35
-98.96
-99.06
-98.56
-96.8
-92.92
-86.39
-77.48
-67.26
-57.41
-49.67
-45.69
-46.75
-53.61
-66.22
-83.08
-100.98
-115.2
-120.6
-113.15
-91.3
-56.72
-13.94
30.95
71.89
104.23
125.44
135.13
134.7
126.63
113.87
99.18
84.74
71.84
60.95
52.09
45.11
39.96
36.54
34.67
33.94
33.89
34.28
35.26
37.43
41.39
47.35
54.72
62.06
67.58
69.74
67.91
62.5
54.71
46.01
37.5
29.62
22.17
14.62
6.51
-2.24
-11.25
-19.88
-27.52
-33.66
-37.84
-39.46
-37.87
-32.66
-24.18
-13.82
-3.9
3.07
5.18
1.97
-5.47
-14.81
-23.22
-28.2
-28.24
-23.1
-13.83
-2.39
9
18.72
26.31
32.77
40.18
50.96
66.9
88.17
112.92
137.41
157.08
167.93
167.91
157.72
140.43
120.25
101.01
84.99
72.69
63.58
56.78
51.7
47.6
43.17
36.19
24.12
5.23
-20.34
-50.51
-82.06
-111.85
-137.44
-157.25
-170.09
-175.24
-172.99
-165.42
-156.64
-151.9
-155.9
-170.88
-195.85
-226.89
-258.65
-286.04
-305.27
-314.24
-312.42
-300.48
-280.18
-253.88
-224.03
-192.62
-160.65
-128.35
-95.51
-62.01
-27.85
6.75
41.66
76.82
111.92
146.27
178.95
209.37
237.93
265.99
294.93
324.79
353.06
374.82
384.42
377.87
354.71
318.36
274.36
227.78
180.8
132.25
79.2
19.99
-43.27
-104.11
-153.41
-183.09
-189.36
-174.35
-144.75
-108.89
-73.38
-41.48
-13.61
11.03
32.91
52.17
69.62
87.5
108.99
136.36
168.72
201.47
227.73
241.11
238.6
221.59
194.86
164.13
133.76
105.68
79.76
55
30.65
6.69
-16.4
-38.1
-58.27
-77.01
-94.48
-110.5
-124.48
-135.49
-142.59
-145.23
-143.43
-137.78
-129.06
-117.98
-104.82
-89.59
-72.32
-53.31
-33.45
-13.91
4.09
19.67
32.45
42.54
50.32
56.34
61.3
66.05
71.67
79.22
89.43
102.19
116.32
129.66
139.52
143.41
139.72
128.23
109.95
86.67
60.4
32.83
5.24
-21.28
-45.56
-66.36
-82.46
-93.14
-98.42
-99.03
-96.29
-91.47
-85.4
-78.21
-69.43
-58.58
-45.65
-31.48
-17.68
-6.13
1.78
5.6
5.91
3.88
0.5
-3.72
-8.96
-15.61
-23.7
-32.64
-41.21
-48.13
-52.54
-54.37
-54.3
-53.55
-53.32
-54.43
-57.04
-60.68
-64.49
-67.61
-69.59
-70.43
-70.59
-70.64
-70.92
-71.4
-71.72
-71.41
-70.12
-67.83
-64.87
-61.77
-59.17
-57.71
-57.94
-60.22
-64.3
-68.98
-71.72
-69.17
-58.02
-36.56
-5.71
30.73
67.1
97.69
118.49
128.13
127.82
120.23
108.51
95.45
83.35
74.17
69.45
70.06
75.75
85.13
95.96
106.09
114.08
119.68
123.39
125.84
127.12
126.53
122.93
115.24
102.98
86.44
66.52
44.31
20.89
-2.88
-26.22
-48.39
-68.77
-86.77
-101.94
-113.97
-122.73
-128.4
-131.59
-133.35
-135
-137.71
-141.79
-146.34
-149.25
-147.83
-139.85
-124.56
-103.16
-78.48
-54.06
-32.94
-16.67
-5.11
3.11
9.62
15.38
20.29
23.38
23.55
20.24
13.88
5.78
-2.33
-8.91
-13.02
-14.36
-13.09
-9.48
-3.91
3.12
10.84
18.27
24.49
28.91
31.53
32.73
33.07
32.89
32.14
30.56
27.99
24.72
21.58
19.7
20.13
23.34
28.93
35.64
41.6
44.84
44.03
39.08
31.39
23.66
19.02
20.02
27.58
40.22
54.12
64.03
64.94
54.2
33.03
6.55
-17.74
-32.79
-34.45
-22.87
-1.91
22.79
45.82
63.36
73.26
74.68
67.64
53.09
33.13
10.93
-10.08
-27.38
-40.26
-50.01
-59.13
-70.24
-85.03
-103.8
-125.39
-147.54
-167.45
-182.65
-191.94
-196.03
-197.6
-200.39
-207.69
-220.59
-237.19
-252.95
-262.27
-260.55
-245.9
-219.58
-185.3
-147.6
-110.46
-76.39
-46.33
-20.07
3.36
25.45
48.19
73.94
104.53
140.31
179.21
216.75
247.24
265.77
269.98
260.74
241.63
217.3
192.04
168.73
148.88
132.94
120.78
111.83
105.13
99.43
93.45
86.33
77.84
68.35
58.44
48.76
39.89
32.47
27.33
25.4
27.52
33.9
43.84
55.79
67.73
77.89
85.32
90.09
92.9
94.5
95
93.86
90.17
83.31
73.35
61.08
47.67
34.2
21.54
10.26
0.87
-6.12
-10.26
-11.48
-10.29
-7.67
-4.82
-2.71
-1.77
-1.79
-2.1
-1.93
-0.74
1.61
4.87
8.49
11.77
14.12
15.2
15.02
13.93
12.62
11.77
12.04
13.76
16.94
21.39
26.77
32.68
38.5
43.26
45.55
43.67
36.19
22.59
3.71
-18.28
-40.52
-60.25
-75.59
-85.86
-91.39
-93.06
-91.69
-87.79
-81.46
-72.61
-61.31
-48.09
-34.17
-21.41
-11.93
-7.58
-9.2
-16.36
-27.34
-39.65
-50.85
-59.18
-63.95
-65.46
-64.78
-63.24
-62.04
-61.99
-63.3
-65.65
-68.38
-70.8
-72.43
-73.24
-73.44
-73.39
-73.32
-73.22
-73.04
-72.89
-73.16
-74.51
-77.57
-82.6
-89.32
-97.02
-104.77
-111.67
-117.03
-120.23
-120.7
-117.97
-111.89
-102.79
-91.39
-78.4
-64.01
-47.63
-28.28
-5.3
20.77
47.88
73.06
93.65
108.52
118.36
125
130.08
133.96
135.57
133.33
126.45
115.68
103.23
91.63
82.53
76.03
70.94
65.61
58.96
50.92
42.35
34.43
27.99
23.2
19.62
16.52
13.35
10.01
6.93
4.8
4.21
5.32
7.71
10.64
13.27
15.05
15.73
15.38
14.11
12.09
9.64
7.37
6.18
7.01
10.36
16.05
23.06
29.98
35.41
38.54
39.2
37.77
34.87
31.11
26.97
22.75
18.71
15.08
12.06
9.76
8.18
7.2
6.54
5.87
4.9
3.51
1.77
-0.05
-1.7
-2.99
-3.97
-4.82
-5.86
-7.32
-9.28
-11.62
-14.09
-16.36
-18.22
-19.62
-20.78
-21.98
-23.42
-25.11
-26.83
-28.27
-29.4
-30.53
-32.22
-34.94
-38.51
-41.97
-43.77
-42.49
-37.47
-29.24
-19.46
-10.34
-4.06
-2.24
-5.89
-15.4
-30.78
-51.43
-76.12
-102.83
-129.17
-153.11
-173.68
-191.19
-206.77
-221.07
-233.23
-240.53
-239.3
-226.42
-201.11
-165.44
-123.65
-80.42
-38.95
-0.08
37.41
75.55
115.69
157.58
199.22
237.49
269.03
290.88
300.98
298.33
283.11
256.83
222.25
183.05
143.21
106.25
74.64
49.5
30.8
17.96
10.61
9.06
14.23
26.87
46.41
70.37
94.5
114.06
125.42
127.35
121.16
109.8
96.41
83.13
70.83
59.48
48.89
39.24
30.94
24.29
19.12
14.82
10.5
5.48
-0.5
-7.2
-14.05
-20.45
-26.05
-30.85
-35.18
-39.49
-43.96
-48.39
-52.12
-54.34
-54.52
-52.61
-49.3
-45.77
-43.4
-43.2
-45.39
-49.31
-53.61
-56.83
-57.97
-56.84
-54.09
-50.9
-48.47
-47.49
-47.87
-48.74
-48.67
-46.09
-39.79
-29.31
-15.08
1.63
19.02
35.05
47.85
55.85
58.15
54.75
46.74
36.25
25.94
18.39
15.28
16.86
21.85
27.79
31.7
30.87
23.49
9.06
-11.64
-36.81
-64.21
-91.67
-117.39
-140.02
-158.55
-172.28
-180.91
-184.65
-184.36
-181.26
-176.43
-170.25
-161.94
-149.66
-130.92
-103.46
-66.13
-19.53
33.98
90.66
145.98
195.46
235.1
261.87
273.89
270.72
253.44
224.61
188.03
148.06
108.76
73.05
42.22
16.11
-6.16
-25.19
-40.67
-51.38
-56
-54.16
-47.23
-38.27
-31.24
-29.53
-34.85
-46.76
-63.05
-80.62
-96.34
-107.55
-112.2
-109.01
-97.54
-78.5
-53.95
-27.1
-1.7
18.94
33
40.58
43.62
44.87
46.64
49.84
53.61
55.9
54.7
49.19
40.46
31.19
24.77
23.81
29.17
39.66
52.42
64.04
71.71
73.87
70.39
62.16
50.39
36.18
20.25
3.24
-13.99
-30.09
-43.53
-53.03
-58.06
-59.19
-57.76
-55.3
-52.8
-50.34
-47.33
-42.97
-36.96
-29.72
-22.37
-16.1
-11.72
-9.34
-8.44
-8.16
-7.78
-6.94
-5.76
-4.72
-4.38
-5.09
-6.76
-8.89
-10.68
-11.41
-10.78
-9.02
-6.83
-5.01
-4.14
-4.49
-6.03
-8.55
-11.69
-14.9
-17.26
-17.73
-15.4
-9.99
-2.14
6.7
14.76
20.64
23.77
24.42
23.35
21.29
18.63
15.43
11.56
7.08
2.34
-2.15
-5.83
-8.4
-9.86
-10.42
-10.47
-10.36
-10.28
-10.23
-10.12
-9.8
-9.21
-8.45
-7.73
-7.28
-7.27
-7.62
-8.13
-8.55
-8.65
-8.4
-7.94
-7.52
-7.34
-7.52
-8.07
-8.92
-10.08
-11.44
-12.88
-13.96
-13.95
-12
-7.5
-0.45
8.33
17.46
25.42
31.06
34
34.61
33.7
32.11
30.38
28.6
26.61
24.24
21.46
18.43
15.5
12.94
10.86
9.23
7.85
6.55
5.27
4.05
2.94
2.02
1.23
0.4
-0.67
-2.19
-4.26
-6.87
-9.78
-12.65
-15.1
-16.96
-18.31
-19.49
-20.99
-23.12
-25.87
-28.92
-31.83
-34.31
-36.39
-38.43
-40.92
-44.2
-48.22
-52.49
-56.1
-58.01
-57.39
-54
-48.33
-41.53
-35.13
-30.55
-28.69
-29.67
-32.92
-37.2
-40.85
-42.05
-39.09
-30.92
-17.61
-0.73
17.01
32.62
43.89
50.18
52.4
52.22
50.92
48.47
43.48
34
18.7
-2.1
-26.23
-50.39
-71.38
-87.07
-96.89
-101.48
-101.8
-98.39
-91.19
-79.92
-64.66
-46.44
-27.14
-8.82
6.95
19.37
28.29
33.95
37.05
38.82
41.21
46.55
56.65
71.96
90.99
110.91
128.48
141.28
148.24
149.42
145.38
136.76
124.28
109.12
93.34
79.62
70.5
67.38
69.82
75.65
81.6
84.48
82.27
74.69
63.05
49.49
36.06
24.05
13.75
4.73
-3.53
-11.37
-18.76
-25.46
-31.36
-36.54
-41.29
-45.88
-50.46
-54.99
-59.27
-63.02
-65.97
-67.97
-69.01
-69.34
-69.26
-69.07
-68.85
-68.4
-67.41
-65.67
-63.29
-60.76
-58.83
-58.09
-58.81
-60.72
-63.14
-65.24
-66.52
-67.01
-67.37
-68.6
-71.51
-76.22
-81.94
-86.94
-89.05
-86.36
-77.79
-63.41
-44.31
-22.15
1.35
24.86
47.58
69.1
89.19
107.47
123.21
135.43
143.2
145.91
143.45
136.24
124.97
110.4
93.23
74.31
54.84
36.45
21.04
10.26
4.95
4.68
7.75
11.65
13.68
11.8
5.11
-6.08
-20.48
-36.39
-52.03
-65.99
-77.51
-86.57
-93.92
-100.69
-107.74
-114.98
-121.08
-123.86
-121.17
-112
-97.05
-78.36
-58.06
-36.97
-14.01
13.12
46.18
84.54
124.48
160.1
185.43
196.69
193.34
177.76
153.81
125.43
96.04
68.78
46.88
33.26
29.56
34.85
45.28
55.29
59.73
55.98
44.86
29.83
15.01
3.39
-4.13
-8.44
-10.97
-12.71
-13.84
-13.95
-12.85
-11.01
-9.39
-8.92
-9.95
-11.97
-13.94
-14.91
-14.59
-13.54
-12.92
-13.86
-16.85
-21.62
-27.14
-32.16
-35.73
-37.52
-38.03
-38.38
-39.92
-43.61
-49.53
-56.54
-62.46
-64.7
-61.04
-50.46
-33.58
-12.49
9.78
30.09
46.01
56.35
61.17
61.58
59.06
54.89
49.77
43.79
36.73
28.61
19.88
11.42
4.17
-1.48
-5.81
-9.63
-13.87
-19.08
-25.23
-31.89
-38.51
-44.69
-50.28
-55.23
-59.51
-63.01
-65.5
-66.66
-66.16
-63.76
-59.42
-53.48
-46.67
-40.02
-34.6
-31.22
-30.45
-32.58
-37.82
-46
-56.23
-66.55
-74.18
-76.4
-71.62
-60.31
-44.86
-28.57
-14.23
-3.13
5.12
11.7
17.55
22.73
26.46
27.89
26.84
24.08
20.89
18.51
17.53
17.89
19.09
20.6
22.1
23.46
24.57
25.17
24.86
23.29
20.35
16.27
11.53
6.63
1.85
-2.87
-7.9
-13.69
-20.48
-28.19
-36.43
-44.59
-52.13
-58.76
-64.49
-69.65
-74.84
-80.84
-88.32
-97.29
-106.69
-114.1
-116.27
-110
-93.46
-67.03
-33.34
3.51
39.25
70.66
95.98
114.87
127.77
135.35
138.21
136.98
132.42
125.55
117.52
109.34
101.65
94.66
88.22
82.03
75.84
69.64
63.59
57.89
52.54
47.39
42.1
36.41
30.3
24.07
18.21
13.22
9.34
6.49
4.17
1.71
-1.54
-5.98
-11.49
-17.45
-23
-27.34
-30.19
-31.92
-33.51
-36.25
-41.31
-49.3
-59.95
-71.78
-82.24
-88.19
-86.8
-76.64
-58.4
-34.85
-10.11
11.86
28.45
39.01
44.69
47.54
49.48
51.62
54.04
56.12
57.04
56.23
53.65
49.72
45.18
40.77
36.91
33.71
30.9
28.21
25.43
22.53
19.62
16.8
14.01
11.04
7.58
3.33
-1.84
-7.9
-14.62
-21.55
-28.23
-34.18
-39.14
-43.07
-46.2
-48.94
-51.86
-55.52
-60.39
-66.8
-74.51
-82.41
-88.31
-89.25
-82.43
-66.3
-41.59
-11.3
20.08
48.2
70.24
85.6
95.47
101.76
106.03
108.89
110.12
109.37
106.67
102.72
98.5
94.86
92.03
89.59
86.76
82.86
77.73
71.76
65.71
60.23
55.42
50.82
45.54
38.77
30.24
20.38
10.18
0.8
-6.94
-12.75
-16.99
-20.33
-23.6
-27.41
-32.07
-37.54
-43.41
-48.89
-52.97
-54.66
-53.28
-48.73
-41.59
-32.97
-24.15
-16.25
-10.05
-5.88
-3.78
-3.57
-4.93
-7.46
-10.79
-14.52
-18.47
-22.52
-26.65
-30.71
-34.35
-37.11
-38.54
-38.48
-37.16
-35.09
-32.86
-30.87
-29.26
-27.94
-26.78
-25.77
-25.04
-24.81
-25.27
-26.49
-28.28
-30.3
-32.16
-33.53
-34.25
-34.38
-34.18
-34.15
-34.8
-36.56
-39.54
-43.39
-47.23
-49.83
-49.96
-46.78
-40.14
-30.67
-19.59
-8.43
1.41
9.04
14.08
16.73
17.47
16.82
15.16
12.56
9.01
4.58
-0.4
-5.37
-9.76
-13.29
-16.03
-18.25
-20.19
-21.71
-22.29
-21.42
-18.94
-15.31
-11.61
-9.13
-9
-11.79
-17.35
-24.95
-33.52
-42.01
-49.7
-56.38
-62.38
-68.28
-74.63
-81.53
-88.62
-95.19
-100.53
-104.33
-106.79
-108.69
-110.98
-114.56
-119.8
-126.13
-131.78
-133.89
-129.08
-114.3
-87.81
-49.93
-3.27
47.74
97.75
141.76
176.21
199.5
212.07
215.75
212.85
205.52
195.3
183.23
170.21
157.23
145.25
134.98
126.44
119
111.79
104.13
95.89
87.41
79.2
71.51
64.25
56.98
49.35
41.36
33.41
26.28
20.74
17.43
16.67
18.35
21.95
26.51
30.72
33.19
32.78
28.99
21.99
12.55
1.59
-10.21
-22.67
-35.95
-50.13
-64.73
-78.35
-88.98
-94.54
-93.71
-86.51
-74.33
-59.31
-43.64
-28.76
-15.32
-3.54
6.25
13.37
17.16
17.56
15.52
12.76
11.08
11.37
13.28
15.4
16.01
13.96
9.05
1.87
-6.45
-14.6
-21.18
-24.86
-24.65
-20.24
-12.25
-2.02
8.91
19.44
29.33
38.84
48.22
57.17
64.61
69.06
69.16
64.1
53.81
38.85
20.34
-0.29
-21.36
-41.21
-58.48
-72.44
-83.09
-91.07
-97.3
-102.59
-107.35
-111.62
-115.22
-117.9
-119.49
-119.79
-118.55
-115.57
-110.76
-104.28
-96.61
-88.49
-80.67
-73.74
-67.9
-62.98
-58.59
-54.3
-49.91
-45.4
-40.9
-36.61
-32.44
-27.83
-21.74
-12.92
-0.35
16.31
36.46
58.73
81.15
101.7
118.64
130.93
138.34
141.61
142.19
141.83
141.97
143.08
144.51
144.73
142.03
135.13
123.78
108.6
90.8
71.68
52.38
33.76
16.63
1.84
-9.66
-16.98
-19.67
-17.96
-12.84
-5.9
1.06
6.47
9.35
9.41
6.9
2.3
-3.85
-10.92
-18.15
-24.51
-28.93
-30.51
-28.97
-24.76
-18.86
-12.45
-6.39
-1.2
2.98
6.05
7.8
7.97
6.51
3.76
0.46
-2.42
-4.09
-4.28
-3.31
-2.12
-1.86
-3.56
-7.65
-13.79
-20.84
-27.19
-31.35
-32.56
-31.02
-27.86
-24.55
-22.34
-21.86
-23.09
-25.68
-29.23
-33.42
-38.01
-42.68
-47.02
-50.53
-52.84
-53.7
-52.93
-50.31
-45.64
-38.83
-30.21
-20.44
-10.47
-1.2
6.77
13.21
18.03
21.08
21.95
20.09
15.16
7.26
-2.84
-13.8
-23.96
-31.81
-36.38
-37.42
-35.55
-31.86
-27.57
-23.52
-19.96
-16.54
-12.74
-8.28
-3.45
0.84
3.42
3.18
-0.41
-7.15
-16.23
-26.47
-36.64
-45.77
-53.31
-59.45
-65.34
-73.19
-85.89
-106.22
-135.69
-173.64
-216.87
-260.32
-298.17
-325.39
-338.76
-337.23
-321.73
-294.54
-258.64
-217.27
-173.47
-129.7
-87.45
-47.01
-7.73
31.31
70.43
108.75
144.17
174.3
197.49
213.57
223.71
229.52
232.04
231.23
226.32
216.77
203.06
186.86
170.37
155.35
142.6
131.96
123.01
115.57
109.92
106.56
105.62
106.55
108.19
109.14
108.28
105.17
100.2
94.42
89.15
85.43
83.73
83.77
84.81
86.01
86.67
86.5
85.47
83.69
81.16
77.82
73.57
68.44
62.63
56.48
50.33
44.26
38.01
30.97
22.47
12.11
0.12
-12.55
-24.33
-33.41
-38.36
-38.4
-33.63
-24.91
-13.5
-0.73
12.33
24.8
36
45.04
50.79
51.97
47.47
36.88
20.93
1.51
-18.66
-36.71
-50.42
-58.63
-61.52
-60.28
-56.56
-51.91
-47.1
-42
-35.6
-26.75
-14.72
0.13
16.31
31.74
44.44
53.26
58.1
59.57
58.41
55.18
50.15
43.7
36.64
30.09
25.2
22.48
21.57
21.39
20.74
18.8
15.38
10.94
6.07
1.17
-3.7
-8.67
-13.84
-19.23
-24.77
-30.53
-36.69
-43.39
-50.4
-57
-62.14
-64.85
-64.78
-62.43
-58.98
-55.7
-53.49
-52.42
-51.98
-51.33
-49.89
-47.51
-44.44
-41.11
-37.82
-34.62
-31.42
-28.14
-24.92
-22
-19.64
-17.91
-16.7
-15.71
-14.66
-13.45
-12.14
-10.91
-9.94
-9.38
-9.31
-9.73
-10.56
-11.66
-12.8
-13.7
-14.17
-14.19
-13.92
-13.57
-13.32
-13.19
-13.1
-12.98
-12.84
-12.75
-12.8
-13.03
-13.37
-13.65
-13.74
-13.54
-13.05
-12.29
-11.26
-9.87
-7.95
-5.36
-2.1
1.58
5.28
8.5
10.88
12.38
13.19
13.64
13.94
14.05
13.69
12.57
10.58
7.98
5.28
3.05
1.72
1.44
2.03
3.13
4.38
5.5
6.37
7
7.4
7.58
7.43
6.83
5.66
3.91
1.65
-0.92
-3.62
-6.31
-8.88
-11.26
-13.41
-15.33
-17.06
-18.77
-20.54
-22.34
-24
-25.22
-25.77
-25.63
-25.05
-24.55
-24.7
-25.95
-28.45
-32.04
-36.28
-40.66
-44.67
-47.86
-49.97
-50.84
-50.6
-49.51
-47.99
-46.43
-45.07
-43.97
-42.97
-41.9
-40.68
-39.48
-38.63
-38.59
-39.72
-42.23
-46.2
-51.55
-58.22
-66.11
-75.05
-84.71
-94.5
-103.67
-111.46
-117.42
-121.5
-124.07
-125.65
-126.71
-127.23
-126.68
-124.16
-118.63
-109.33
-96.04
-79.38
-60.75
-42.15
-25.61
-12.65
-3.84
1.32
4.04
5.59
6.77
7.44
6.6
2.73
-5.56
-18.86
-36.27
-55.11
-71.35
-80.42
-78.56
-63.77
-36.43
0.83
43.86
87.97
128.73
162.61
187.46
202.64
208.92
208.18
202.74
194.72
185.57
176.05
166.45
156.93
147.68
138.84
130.39
122.14
113.88
105.55
97.3
89.42
82.26
75.93
70.14
64.34
57.8
49.97
40.7
30.41
19.99
10.44
2.44
-3.97
-9.4
-14.95
-21.68
-30.25
-40.65
-52.18
-63.79
-74.45
-83.64
-91.57
-99.38
-108.81
-121.8
-139.77
-162.82
-189.23
-215.52
-237.01
-249
-248.25
-234
-208.45
-176.22
-142.83
-112.86
-88.52
-69.13
-51.88
-33.37
-11.26
14.8
43.25
71.56
97.43
119.43
137.2
150.95
160.98
167.45
170.47
170.45
168.19
164.78
161.15
157.82
154.67
151.04
146.13
139.44
131.03
121.63
112.26
103.81
96.68
90.54
84.62
78.1
70.58
62.22
53.68
45.67
38.57
32.25
26.17
19.72
12.52
4.64
-3.47
-11.24
-18.29
-24.61
-30.59
-36.99
-44.72
-54.63
-67.1
-81.63
-96.51
-108.85
-115.19
-112.46
-99.08
-75.64
-44.68
-9.93
24.87
56.8
84.22
106.52
123.77
136.2
144.13
147.95
148.21
145.74
141.48
136.43
131.41
127.04
123.64
121.25
119.71
118.72
117.88
116.79
115.06
112.47
108.92
104.63
99.95
95.34
91.18
87.63
84.51
81.34
77.37
71.63
63.11
50.97
34.73
14.64
-8.28
-32.24
-55.08
-74.75
-89.83
-99.96
-105.75
-108.62
-110.36
-112.76
-117.24
-124.47
-134.07
-144.34
-152.31
-154.36
-147.32
-129.61
-102.16
-68.31
-32.88
-0.71
24.88
42.74
53.68
59.6
62.4
63.32
62.7
60.48
56.51
51.03
44.58
37.94
31.71
26.21
21.44
17.23
13.5
10.26
7.6
5.53
3.78
1.91
-0.63
-4.23
-8.89
-14.3
-19.89
-25.16
-29.73
-33.46
-36.39
-38.62
-40.34
-41.79
-43.27
-45.12
-47.6
-50.73
-54.35
-58.12
-61.68
-64.78
-67.38
-69.67
-71.95
-74.71
-78.41
-83.49
-89.97
-97.18
-103.62
-107.17
-105.7
-97.81
-83.48
-64.15
-42.31
-20.67
-1.44
14.19
26
34.43
40.15
43.74
45.5
45.61
44.14
41.26
37.2
32.33
27.04
21.73
16.7
12.12
8.08
4.62
1.86
-0.03
-0.87
-0.56
0.9
3.27
6.2
9.27
12.14
14.49
16.1
16.84
16.67
15.73
14.19
12.21
9.85
6.94
3.3
-1.18
-6.41
-12.06
-17.7
-22.94
-27.56
-31.55
-35.13
-38.64
-42.61
-47.72
-54.6
-63.46
-73.62
-83.17
-89.23
-88.66
-79.18
-60.35
-34.04
-3.82
26.08
52.11
72.37
86.66
96.03
101.96
105.5
107.15
106.9
104.63
100.42
94.61
87.79
80.46
73.04
65.68
58.43
51.42
44.79
38.77
33.51
28.94
24.72
20.39
15.4
9.39
2.31
-5.59
-13.79
-21.77
-29.24
-36.27
-43.13
-50.22
-57.82
-65.87
-74.19
-82.43
-90.42
-98.29
-106.31
-114.76
-123.76
-133.13
-142.46
-151.4
-159.86
-168.26
-177.47
-188.59
-202.4
-218.84
-236.64
-253.37
-265.92
-271.3
-267.39
-253.52
-230.53
-200.38
-165.53
-128.21
-89.92
-51.42
-12.91
25.19
61.81
94.92
121.82
139.96
147.85
145.66
135.29
120.07
104.02
91.16
84.72
86.35
95.54
109.6
124.37
135.6
140.58
139.07
133.16
126.11
120.92
119.28
121.51
127.02
134.89
144.08
153.19
160.32
163.3
160.41
151.04
136.08
117.62
98.22
80.03
64.29
51.1
39.66
28.61
16.65
3.06
-11.69
-25.67
-35.8
-38.76
-32.39
-16.71
5.69
30.41
52.74
69.28
78.91
82.77
83.17
82.31
81.39
80.34
78.45
75.08
70.39
65.34
61.49
60.33
62.78
68.96
78.26
89.61
101.78
113.63
123.97
131.5
134.83
132.72
124.61
111
93.55
74.58
56.29
39.9
25.37
11.69
-2.42
-17.73
-34.17
-50.97
-67.06
-81.52
-93.76
-103.38
-110.14
-113.95
-115.07
-114.31
-112.92
-112.37
-113.9
-118.06
-124.32
-130.95
-135.26
-134.07
-124.7
-105.86
-78.36
-45.16
-10.58
21.01
46.51
64.69
76.14
82.42
85.08
85
82.46
77.45
70.31
61.86
53.27
45.69
39.64
34.9
30.62
25.84
19.89
12.76
5.06
-2.35
-8.7
-13.78
-17.93
-21.81
-26.01
-30.69
-35.5
-39.72
-42.61
-43.8
-43.46
-42.24
-41.05
-40.63
-41.38
-43.21
-45.63
-48.08
-50.04
-51.39
-52.28
-53.19
-54.67
-57.28
-61.43
-67.21
-74.15
-81.02
-85.92
-86.7
-81.74
-70.78
-55.22
-37.7
-21.2
-7.95
1.19
6.66
9.6
11.01
11.29
10.31
7.82
3.92
-0.75
-5.26
-8.77
-10.95
-11.98
-12.46
-12.93
-13.74
-14.87
-16.33
-18.09
-20.05
-21.59
-21.4
-17.66
-8.69
6.16
26.24
49.8
74.87
99.93
124.04
146.36
165.4
178.9
184.32
180
165.95
143.88
116.5
86.3
54.82
22.75
-9.54
-41.3
-71.15
-97.39
-118.64
-134.48
-145.57
-153.25
-158.92
-163.33
-166.31
-166.86
-163.68
-155.88
-143.42
-127.31
-109.1
-90.33
-71.81
-53.48
-34.61
-14.52
6.81
28.35
48.26
64.56
75.73
81.23
81.51
77.7
71.06
62.7
53.39
43.57
33.49
23.27
13.01
2.76
-7.37
-17.22
-26.49
-34.71
-41.48
-46.46
-49.64
-51.35
-52.14
-52.66
-53.32
-54.27
-55.39
-56.5
-57.49
-58.56
-60.12
-62.72
-66.9
-72.99
-80.83
-89.47
-96.98
-100.56
-97.33
-85.32
-64.45
-36.87
-6.42
22.65
47.14
65.73
78.84
87.87
94.16
98.37
100.5
100.34
97.99
94.05
89.39
84.79
80.56
76.55
72.35
67.62
62.42
57.19
52.46
48.55
45.32
42.11
38.06
32.47
25.2
16.87
8.55
1.34
-4.24
-8.48
-12.34
-17.04
-23.41
-31.46
-40.39
-48.93
-55.91
-60.73
-63.57
-65.26
-67.03
-70.12
-75.45
-83.32
-92.85
-101.85
-106.98
-104.57
-92.02
-68.92
-37.58
-2.38
31.76
61.11
84.12
101.29
114.21
124.15
131.29
134.95
134.27
129.15
120.6
110.49
100.75
92.66
86.51
81.72
77.37
72.73
67.44
61.58
55.3
48.55
41.01
32.21
21.81
9.86
-3.15
-16.41
-29.05
-40.29
-49.6
-56.8
-62.06
-65.98
-69.39
-73.23
-78.08
-83.89
-89.81
-94.38
-96.07
-93.81
-87.29
-77.1
-64.47
-51.16
-39.09
-30.31
-26.55
-28.66
-36
-46.16
-55.34
-59.56
-56.18
-44.92
-28.04
-9.25
7.91
21.37
30.96
37.84
43.39
48.27
52.3
54.85
55.53
54.59
52.83
51.07
49.61
48.19
46.09
42.64
37.53
30.94
23.37
15.32
7.12
-1.13
-9.56
-18.32
-27.44
-36.8
-46.14
-55.26
-64.24
-73.41
-83.2
-93.5
-102.92
-108.71
-107.24
-95.26
-71.22
-36.16
6.55
52.28
96.35
135.06
165.8
186.84
197.16
196.52
185.9
167.89
146.33
125.41
108.5
97.11
90.78
87.68
85.6
82.94
79.14
74.58
69.99
65.83
62.01
57.97
53.1
47.03
39.86
31.95
23.64
14.97
5.77
-4.18
-14.83
-25.69
-36.02
-44.99
-52.08
-57.33
-61.25
-64.63
-68.23
-72.51
-77.52
-83.13
-89.02
-95.03
-101.05
-107.04
-112.95
-118.68
-124.11
-129.11
-133.64
-137.72
-141.33
-144.43
-146.95
-148.83
-150.17
-151.1
-151.74
-152.06
-151.8
-150.52
-147.58
-142.18
-133.37
-120.13
-101.63
-77.65
-48.89
-17.05
15.51
46.39
73.68
96.32
114.01
126.85
135.25
139.71
141.05
140.45
139.21
138.42
138.61
139.56
140.63
141.17
140.79
139.58
137.79
135.62
132.94
129.33
124.3
117.54
109.08
99.17
88.14
76.22
63.39
49.55
34.61
18.65
2
-14.85
-31.27
-46.81
-61.19
-74.49
-87.08
-99.51
-112.45
-126.49
-141.74
-157.41
-171.39
-180.3
-180.26
-168.3
-143.72
-108.96
-69.03
-29.95
3.31
28.29
45.26
56.24
63.52
68.51
71.37
71.65
69.11
64.25
58.33
52.74
48.45
45.58
43.5
41.2
37.88
33.4
28.28
23.46
19.74
17.38
15.92
14.43
11.87
7.68
1.92
-4.66
-10.98
-16.11
-19.65
-21.92
-23.76
-26.19
-29.88
-34.89
-40.7
-46.38
-51.1
-54.48
-56.76
-58.67
-61.21
-65.32
-71.64
-80.35
-90.82
-101.55
-110.05
-113.3
-108.54
-94.22
-70.78
-40.81
-8.29
22.57
48.5
67.97
81.11
89.13
93.49
95.37
95.45
94.06
91.45
87.92
83.81
79.4
74.83
70.17
65.47
60.95
56.82
53.33
50.52
48.22
46.09
43.67
40.54
36.43
31.26
25.1
18.19
10.88
3.55
-3.37
-9.66
-15.26
-20.34
-25.22
-30.29
-35.74
-41.56
-47.59
-53.52
-59.15
-64.37
-69.26
-73.93
-78.51
-83.09
-87.9
-93.41
-100.15
-108.52
-118.32
-128.36
-136.53
-140.17
-136.84
-125.03
-104.7
-77.28
-45.42
-12.24
19.21
46.56
68.5
84.73
95.81
102.73
106.5
107.92
107.5
105.65
102.78
99.47
96.19
93.23
90.57
87.84
84.64
80.68
75.94
70.63
65.08
59.53
54.04
48.5
42.59
36.05
28.72
20.64
12.17
3.78
-4.05
-11.05
-17.29
-23.17
-29.2
-35.67
-42.53
-49.34
-55.47
-60.4
-63.98
-66.55
-68.84
-71.76
-76.15
-82.6
-91.26
-101.58
-112.1
-120.46
-123.73
-119.24
-105.56
-83.34
-55.35
-25.65
1.64
23.65
39.46
49.78
56.26
60.38
63.02
64.39
64.48
63.43
61.78
60.19
59.24
59.1
59.49
59.85
59.71
58.83
57.28
55.39
53.45
51.44
49.01
45.54
40.48
33.72
25.77
17.57
10.19
4.24
-0.39
-4.52
-9.27
-15.5
-23.34
-32.11
-40.64
-47.77
-52.92
-56.32
-58.92
-62.14
-67.34
-75.47
-86.61
-99.72
-112.51
-121.87
-124.57
-118.2
-102.16
-77.89
-48.48
-17.73
10.89
35.09
53.94
67.7
77.38
84.17
89.16
92.97
95.77
97.26
97.03
94.81
90.79
85.53
79.78
74.21
69.2
64.78
60.85
57.24
53.86
50.65
47.5
44.14
40.3
35.74
30.37
24.32
17.86
11.3
4.88
-1.27
-7.14
-12.73
-18.11
-23.39
-28.75
-34.42
-40.58
-47.16
-53.86
-60.15
-65.53
-69.86
-73.46
-77.04
-81.55
-87.9
-96.6
-107.42
-119.17
-129.57
-135.65
-134.41
-123.84
-103.72
-75.95
-43.99
-11.9
16.93
40.54
58.59
71.89
81.69
89.07
94.72
98.94
101.83
103.44
103.89
103.31
101.8
99.43
96.23
92.32
87.87
83.07
78.16
73.21
68.2
63.01
57.47
51.48
45.05
38.29
31.4
24.63
18.21
12.42
7.46
3.4
0.12
-2.7
-5.51
-8.76
-12.73
-17.49
-22.82
-28.35
-33.66
-38.49
-42.67
-46.25
-49.5
-52.94
-57.2
-62.84
-69.98
-77.95
-85.13
-89.11
-87.32
-77.87
-60.34
-36
-7.61
21.45
48.13
70.35
87.33
99.38
107.39
112.34
114.91
115.43
114.1
111.19
107.31
103.3
100.02
98.04
97.4
97.54
97.64
96.87
94.74
91.07
85.86
79.15
70.98
61.53
51.22
40.82
31.29
23.58
18.32
15.71
15.62
17.75
21.91
28.1
36.31
46.15
56.5
65.4
70.45
69.52
61.69
47.74
30.03
11.75
-4.18
-16.09
-23.81
-28.38
-31.29
-33.84
-36.85
-40.62
-45.24
-50.78
-57.26
-64.49
-71.92
-78.68
-83.71
-86.17
-85.82
-83.13
-79.22
-75.44
-72.89
-71.98
-72.35
-73.12
-73.53
-73.27
-72.69
-72.56
-73.59
-76.02
-79.51
-83.36
-86.8
-89.32
-90.84
-91.72
-92.58
-94.06
-96.77
-101.09
-107.06
-114.05
-120.72
-125
-124.64
-117.92
-104.49
-85.68
-64.24
-43.47
-26.14
-13.62
-5.75
-1.32
1.07
2.42
3.09
3.06
2.27
0.88
-0.82
-2.62
-4.58
-7.02
-10.29
-14.55
-19.56
-24.78
-29.6
-33.67
-37.13
-40.6
-44.84
-50.54
-57.93
-66.67
-76.05
-85.27
-93.78
-101.52
-108.9
-116.55
-125.01
-134.32
-144.07
-153.57
-162.23
-169.89
-177.08
-184.7
-193.64
-204.15
-215.34
-225.1
-230.52
-228.63
-217.37
-196.32
-166.84
-131.68
-94.13
-56.99
-21.96
10.53
41.06
70.77
100.73
131.58
163.11
193.91
221.57
243.1
255.96
259.13
253.66
242.51
229.46
217.77
209.04
203.06
198.42
193.55
187.56
180.46
172.78
165.01
157.27
149.37
141.14
132.68
124.53
117.38
111.71
107.52
104.15
100.53
95.44
87.84
77.19
63.56
47.64
30.59
13.72
-1.86
-15.55
-27.32
-37.45
-46.16
-53.34
-58.42
-60.57
-58.99
-53.28
-43.55
-30.55
-15.59
-0.34
13.38
23.96
30.39
32.58
31.36
28.42
25.66
24.77
26.72
31.63
38.87
47.35
55.88
63.44
69.44
73.76
76.7
78.69
79.94
80
77.49
70.46
57.29
38.02
15.51
-4.55
-14.91
-9.31
15.01
55.7
105.73
155.58
196.11
221.19
228.75
220.33
199.5
170.32
136.05
98.8
59.65
18.97
-22.95
-65.5
-107.15
-145.31
-176.49
-197.02
-204.03
-196.28
-174.7
-142.18
-103.06
-62.22
-24.3
6.95
29.19
41.62
44.99
41.25
33.04
23.02
13.42
5.81
0.97
-0.92
-0.17
2.56
6.38
10.33
13.56
15.49
15.87
14.73
12.35
9.12
5.47
1.69
-2.15
-6.22
-10.86
-16.38
-22.99
-30.55
-38.68
-46.87
-54.61
-61.47
-67.15
-71.47
-74.45
-76.4
-77.9
-79.71
-82.31
-85.44
-87.82
-87.43
-82.05
-70.37
-52.59
-30.64
-7.6
13.31
29.71
40.64
46.43
48.16
47.02
43.87
39.26
33.62
27.52
21.59
16.36
11.99
8.24
4.6
0.53
-4.2
-9.52
-15.21
-21.16
-27.51
-34.51
-42.38
-51
-59.96
-68.72
-76.89
-84.51
-91.82
-99.18
-106.75
-114.35
-121.49
-127.61
-132.14
-134.61
-134.83
-132.93
-129.55
-125.76
-122.81
-121.42
-121.1
-119.79
-114.29
-101.37
-79.06
-47.79
-10.43
28.54
64.5
93.99
115.51
129.3
136.52
138.48
136.03
129.74
120.41
109.43
98.76
90.47
86
85.68
88.78
93.83
99.25
103.9
107.2
109.06
109.58
108.82
106.69
102.91
97.13
89.14
79.08
67.43
55.02
42.68
30.87
19.49
7.83
-5.13
-20.26
-37.84
-57.31
-77.05
-94.61
-107.04
-111.56
-106.34
-91.08
-67.22
-37.61
-5.81
24.97
52.46
75.67
94.56
109.57
121.1
129.23
133.83
134.78
132.37
127.42
121.27
115.34
110.54
106.7
102.5
95.78
84.67
68.56
48.75
28.08
9.9
-3.35
-10.94
-14
-14.68
-15.06
-16.45
-19.38
-23.93
-30.24
-38.75
-49.78
-63.12
-77.84
-92.3
-104.75
-113.87
-119.13
-120.92
-120.3
-118.66
-117.31
-117.1
-118.19
-120
-121.48
-121.42
-118.86
-113.26
-104.54
-92.85
-78.47
-61.83
-43.7
-25.38
-8.48
5.28
14.63
19.14
19.31
16.4
12.09
8.03
5.63
5.95
9.61
17
28.21
43.13
61.22
81.46
102.23
121.47
137.09
147.43
151.88
150.92
145.94
138.59
130.25
121.69
113.16
104.58
95.91
87.29
78.84
70.48
61.78
52.05
40.62
27.23
12.19
-3.64
-19.13
-33.21
-45.14
-54.59
-61.56
-66.34
-69.27
-70.71
-71.05
-70.69
-70.04
-69.51
-69.38
-69.74
