0
0
0
0
0
0
0
0
0
0
0
0.01
0.01
0
-0.03
-0.05
-0.05
0
0.13
0.36
0.66
1.01
1.37
1.72
2.06
2.4
2.79
3.24
3.8
4.42
5.06
5.66
6.2
6.68
7.15
7.68
8.31
9.14
10.09
11.04
11.88
12.56
13.14
13.76
14.65
15.96
17.91
20.32
22.9
25.38
27.58
29.57
31.68
34.32
37.81
42.54
48.15
54.1
59.83
64.97
69.58
74.14
79.34
85.71
93.76
103
112.62
121.73
129.77
136.75
143.3
150.75
157.77
166.64
177.95
191.79
206.97
220.57
228.25
225.36
208.53
176.87
132.76
80.05
23.07
-34.94
-92.44
-149.16
-205.23
-260.37
-313.74
-363.87
-409.83
-450.91
-486.5
-515.74
-537.23
-549.22
-549.96
-538.37
-514.21
-478.67
-433.88
-382.45
-327.02
-269.84
-212.63
-156.66
-102.95
-52.37
-5.9
35.58
71.43
101.35
125.5
144.38
158.69
169.15
176.37
180.75
182.57
182.07
179.51
175.23
169.65
163.18
156.15
148.81
141.3
133.69
126.02
118.33
110.69
103.16
95.8
88.68
81.83
75.25
68.95
62.95
57.25
51.86
46.78
42.03
37.59
33.45
29.61
26.07
22.81
19.83
17.11
14.67
12.48
10.54
8.83
7.35
6.07
4.97
4.05
3.27
2.62
2.09
1.65
1.3
1.01
0.79
0.61
0.47
0.37
0.29
0.23
0.19
0.16
0.14
0.14
0.14
0.15
0.17
0.2
0.23
0.28
0.34
0.39
0.42
0.42
0.39
0.33
0.28
0.27
0.29
0.35
0.43
0.5
0.53
0.53
0.5
0.5
0.55
0.68
0.86
1.07
1.24
1.33
1.34
1.32
1.34
1.5
1.82
2.27
2.74
3.11
3.25
3.16
2.95
2.84
3.01
3.57
4.43
5.36
6.04
6.24
5.93
5.35
4.91
5
5.82
7.22
8.76
9.88
10.14
9.45
8.07
6.56
5.33
4.54
3.93
2.89
0.78
-2.88
-8.29
-15.52
-24.21
-33.59
-42.17
-47.93
-48.93
-44.16
-34.27
-21.54
-9.07
0.5
5.99
7.9
7.85
7.44
7.45
7.74
7.59
6.5
4.55
2.35
0.61
-0.35
-0.72
-1.05
-1.96
-3.68
-5.89
-7.83
-8.69
-7.94
-5.67
-2.46
0.82
3.47
5.18
6.09
6.59
7.09
7.84
8.78
9.72
10.39
10.53
10.02
8.83
7.01
4.61
1.77
-1.48
-5.05
-8.89
-12.87
-16.76
-20.23
-22.89
-24.41
-24.57
-23.47
-21.43
-18.92
-16.46
-14.32
-12.53
-10.97
-9.49
-7.98
-6.47
-5.11
-4.15
-3.79
-4.16
-5.21
-6.8
-8.69
-10.56
-12.04
-12.83
-12.79
-11.98
-10.67
-9.25
-8.07
-7.25
-6.74
-6.27
-5.59
-4.49
-2.88
-0.69
2.14
5.65
9.9
14.82
20.27
26.09
32.14
38.37
44.79
51.26
57.33
62.27
65.15
65.23
62.27
56.74
49.64
42.27
35.74
30.74
27.5
25.84
25.38
25.69
26.3
26.75
26.59
25.54
23.62
21.22
19.08
18.05
18.81
21.58
26.04
31.46
36.94
41.72
45.42
48.06
50.1
52.22
55.23
59.86
66.6
75.56
86.27
97.81
108.89
118.34
125.54
130.71
134.99
140.02
147.36
157.8
170.88
184.93
197.46
205.93
208.42
204.08
193
175.72
152.57
123.45
87.96
46.03
-1.44
-52.33
-103.66
-152.58
-197.21
-237.37
-274.37
-310.44
-348
-389.43
-436.8
-491.47
-553.14
-618.61
-681.34
-732.39
-762.87
-766.98
-744.06
-698.62
-638.21
-570.55
-501.04
-432.08
-363.98
-296.36
-229.29
-163.37
-99.24
-37.05
23.53
82.84
140.79
196.62
249.29
297.9
342.34
383.69
424.35
467.52
515.98
570.46
628.41
683.97
729.48
758.13
766.29
754.43
726.28
686.96
641.12
592.19
542.56
494.12
448.56
406.86
368.69
332.18
294.51
253.05
206.36
154.57
98.92
41.1
-17.36
-75.34
-132.05
-186.76
-238.68
-287.11
-331.58
-372.1
-409.32
-444.37
-478.75
-514.23
-552.85
-596.63
-646.58
-701.36
-756.16
-802.83
-831.72
-834.79
-808.47
-754.87
-680.8
-595
-505.09
-415.9
-329.46
-246.16
-166.13
-89.6
-16.35
55.11
127.34
202.55
280.29
355.96
421.37
467.12
486.6
478.95
449.83
409.31
368.21
334.58
311.95
299.91
296.02
297.82
303.81
313.28
325.39
338.68
351.07
360.44
365.31
365.06
359.82
349.77
334.7
313.72
285.56
249.16
204.22
151.34
91.82
27.56
-38.78
-103.48
-161.7
-208.29
-239.34
-253.76
-253.94
-244.95
-232.55
-221.03
-212.16
-205.43
-199.42
-193.16
-186.8
-181.18
-176.91
-173.66
-170.11
-164.56
-155.66
-143
-127.13
-109.36
-91.24
-74.14
-59.03
-46.43
-36.48
-29.02
-23.75
-20.25
-18.13
-16.93
-16.15
-15.23
-13.6
-10.84
-6.81
-1.86
3.31
7.92
11.5
14.13
16.37
19.03
22.62
27.12
31.89
35.94
38.3
38.33
35.92
31.37
25.35
18.72
12.43
7.48
4.7
4.68
7.53
12.87
19.87
27.49
34.73
40.91
45.65
48.92
50.9
51.84
52.04
51.76
51.23
50.56
49.76
48.67
47.11
44.9
41.98
38.44
34.53
30.53
26.72
23.24
20.12
17.23
14.41
11.44
8.11
4.22
-0.36
-5.68
-11.62
-17.82
-23.85
-29.24
-33.61
-36.79
-38.73
-39.55
-39.48
-38.89
-38.35
-38.59
-40.26
-43.7
-48.66
-54.24
-59.01
-61.35
-59.86
-53.69
-42.87
-28.25
-11.38
5.75
21.18
33.14
40.34
42.05
38.16
29.24
16.53
1.86
-12.64
-24.84
-33.15
-36.62
-35.14
-29.26
-19.97
-8.53
3.76
15.68
26.32
35.1
41.85
46.67
49.86
51.75
52.66
52.94
52.89
52.77
52.73
52.61
52.05
50.47
47.39
42.56
36.15
28.67
20.85
13.3
6.41
0.25
-5.35
-10.62
-15.79
-20.89
-25.66
-29.37
-30.87
-28.87
-22.44
-11.85
1.15
13.39
21.27
22.09
15.09
1.83
-14.54
-30.47
-43.39
-52.22
-57.24
-59.4
-59.54
-58.04
-54.91
-50.14
-43.97
-36.96
-29.73
-22.75
-16.18
-9.89
-3.7
2.5
8.61
14.3
19.06
22.42
24.05
23.98
22.6
20.46
18.13
15.82
13.42
10.58
7.09
3.2
-0.32
-2.3
-1.62
2.42
9.73
19.54
30.56
41.38
50.73
57.78
62.12
63.69
62.62
59.2
53.84
47.03
39.42
31.69
24.45
18.17
13.04
9.08
6.12
3.95
2.38
1.24
0.44
-0.09
-0.44
-0.75
-1.26
-2.24
-3.96
-6.46
-9.6
-13.01
-16.26
-19.05
-21.18
-22.56
-23.15
-22.86
-21.68
-19.68
-17.16
-14.56
-12.36
-10.94
-10.54
-11.2
-12.88
-15.48
-18.87
-22.79
-26.88
-30.62
-33.4
-34.64
-33.95
-31.3
-27.03
-21.81
-16.37
-11.31
-6.94
-3.23
0.06
3.24
6.57
10.2
14.09
18.14
22.14
25.9
29.3
32.24
34.72
36.72
38.14
38.82
38.49
36.93
34.05
29.92
24.74
18.9
12.89
7.3
2.84
0.23
0.02
2.32
6.59
11.74
16.65
20.47
22.64
23.66
24.77
27.14
31.19
36.25
40.75
42.98
41.32
34.46
22.07
4.79
-16.35
-40.17
-65.51
-91.28
-115.84
-137.88
-157.35
-174.16
-188.03
-199.03
-207.46
-213.7
-218.15
-219.79
-218.08
-215.42
-212.87
-209.32
-203.18
-192.64
-176.59
-155.47
-128.83
-99.07
-75.5
-64.47
-66.67
-79.59
-97.83
-114.54
-123.4
-115.7
-87.48
-47.22
-1.42
48.86
103.62
163.97
231.13
305.08
389.7
484.57
575.18
651.41
711.24
754.28
781.55
794.57
756.16
648.88
534.36
435.24
339.46
246.94
161.05
87.11
30.43
-5.83
-16.18
-1.63
20.43
35.32
36.31
19.73
-13.98
-61.11
-116.55
-171.35
-220.36
-270.49
-326.2
-385.59
-444.3
-495.29
-530.33
-542.68
-526.53
-482.15
-420.41
-352.45
-285.72
-225.37
-173.5
-130.08
-94.36
-64.54
-39.84
-22.41
-12.54
-7.72
-4.87
-1.29
4.6
12.95
23.45
35.34
46.94
57.02
65.02
70.1
71.46
68.83
62.9
55.18
47.55
41.58
37.9
36.14
35.25
34.2
32.73
31.88
34.02
42.58
61.33
93.44
140
198.43
261.47
317.5
352.7
355.21
319.57
249.82
159.16
66.06
-12.01
-64.23
-89.22
-94.19
-90.97
-91.54
-104.48
-132.96
-174.18
-220.38
-261.03
-286.36
-291.28
-277.73
-254.6
-234.69
-230.14
-248.21
-289.23
-347.12
-411.71
-471.45
-515.84
-537.16
-531.75
-500.61
-448.98
-384.78
-316.18
-249.2
-186.65
-128.37
-72.53
-17.36
37.79
91.95
142.8
187.34
222.79
247.46
261.28
265.75
263.57
257.96
251.98
247.9
246.71
248
250.14
250.97
248.68
242.66
233.84
224.28
216.5
212.5
213.05
217.44
223.65
228.9
230.43
226.12
215.01
197.57
175.4
150.9
126.69
105.06
87.86
76.25
70.74
71.01
75.98
83.77
92.03
98.33
100.54
97.15
87.45
71.73
51.26
28.32
5.84
-13.22
-26.55
-33.15
-33.64
-30.04
-25.19
-22.06
-23.03
-29.3
-40.56
-55.31
-71.58
-87.81
-103.25
-117.8
-131.34
-143.37
-153
-159.69
-163.74
-166.34
-168.66
-170.71
-170.73
-165.76
-153.23
-132.48
-105.5
-76.13
-48.53
-25.72
-9.07
1.28
5.71
4.8
-0.66
-9.3
-18.82
-26.39
-29.28
-25.69
-15.49
-0.16
17.66
35.15
50.23
62.18
71.73
80.47
90.02
101.22
113.78
126.38
137.3
145.13
149.26
150.11
148.89
147.22
146.45
147.11
148.45
148.63
145.15
135.82
119.41
96.05
67.1
34.72
1.52
-29.85
-56.82
-77.22
-89.54
-93.32
-89.39
-79.67
-66.81
-53.59
-42.47
-35.36
-33.43
-37.01
-45.38
-56.79
-68.66
-78.14
-82.79
-81.22
-73.35
-60.43
-44.75
-29.18
-16.57
-9.31
-8.7
-14.7
-25.78
-39.17
-51.49
-59.66
-61.61
-56.99
-47.14
-34.75
-23.25
-15.94
-15.27
-22.07
-35.21
-51.84
-68.42
-82.2
-92.35
-100.23
-108.35
-118.82
-132.01
-146.36
-159.18
-167.92
-170.98
-167.54
-156.98
-138.46
-111.33
-76.18
-35.86
4.48
38.56
60.85
68.28
60.67
40.51
12.07
-19.27
-47.45
-66.34
-70.82
-58.37
-30.5
7.08
45.93
77.7
96.96
102.81
98.53
89.53
80.84
75.43
73.86
75.23
78.56
83.55
90.57
100.03
111.68
124.34
136.34
146.27
153.76
159.59
165.21
171.88
179.85
188.13
195
198.91
199.44
197.5
194.94
193.43
193.57
194.4
193.87
189.83
181.09
167.73
150.64
130.7
108.28
83.54
57.39
32.23
11.84
0.02
-1.39
6.19
18.31
29.09
33.55
29.13
15.48
-7.05
-38.67
-80.04
-130.42
-185.12
-234.55
-266.08
-268.56
-237.53
-178.23
-104.67
-34.72
16.12
39.48
34.97
7.51
-36.49
-91.61
-153.38
-216.37
-272.71
-312.79
-327.81
-312.73
-267.88
-198.78
-114.19
-24.17
61.17
132.42
181.68
203.65
196.89
164.93
116.19
62.51
16.09
-13.95
-24.35
-18.74
-6.27
1.7
-4.61
-30.81
-77.54
-141.38
-216.35
-294.88
-368.53
-428.36
-466.54
-478.36
-463.91
-427.98
-378.04
-321.69
-265.11
-213.42
-171.53
-144
-133.55
-138.75
-153.08
-166.59
-169.57
-156.41
-127.3
-87.23
-43.39
-2.41
31.08
54.58
67.3
70.07
65.42
57.41
50.73
49.13
54.31
65.85
81.93
100.18
118.2
133.68
144.49
149.43
149.16
146.53
145.62
149.63
158.98
170.52
178.97
179.4
169.52
150.55
126.12
100.6
77.54
59.43
48.24
46.1
55.07
76.01
107.41
145.09
183.18
216.11
240.41
255.48
262.83
264.47
261.6
254.22
242.08
226.11
209.13
195.26
188.21
189.49
197.63
209.01
219.65
226.81
229.53
228.02
222.36
211.7
194.47
169.64
137.98
102.66
68.27
38.89
16.14
-1.84
-19.56
-42.21
-73.28
-112.97
-158.06
-203.53
-245.04
-280.95
-312.76
-343.77
-376.4
-409.98
-440.31
-461.4
-468.49
-460.58
-440.84
-414.64
-386.46
-357.58
-326.14
-289.43
-246.9
-201.68
-159.8
-127.48
-108.38
-102.24
-105.63
-113.66
-121.89
-127.21
-127.52
-121.1
-106.06
-80.66
-44.33
1.22
51.37
99.23
137.49
160.92
168.38
163.39
152.63
143.29
140.34
145.09
155.68
168.92
182.2
194.45
205.83
216.62
226.38
233.88
237.69
236.94
231.75
223.11
212.29
200.41
188.19
176.17
165
155.36
147.74
141.9
136.55
129.51
118.44
101.76
79.38
52.68
23.75
-5.51
-34.11
-61.88
-88.85
-114.47
-137.2
-154.73
-164.73
-165.53
-156.66
-138.82
-113.62
-83.21
-49.89
-15.93
16.59
45.89
70.64
90.01
103.66
111.76
114.94
114.11
110.36
104.71
97.95
90.57
82.79
74.65
66.1
57.13
47.85
38.61
29.93
22.45
16.62
12.51
9.63
7.12
4.03
-0.18
-5.46
-11.13
-16.32
-20.21
-22.46
-23.15
-22.67
-21.55
-20.3
-19.41
-19.34
-20.44
-22.9
-26.7
-31.51
-36.9
-42.39
-47.46
-51.49
-53.74
-53.27
-49.38
-41.93
-31.64
-19.84
-7.95
3.06
13.05
22.52
32.09
41.96
51.58
59.86
65.53
67.67
65.97
60.7
52.57
42.44
31.15
19.44
7.89
-3
-12.93
-21.63
-28.94
-34.72
-38.91
-41.59
-42.89
-42.9
-41.68
-39.18
-35.32
-30.11
-23.7
-16.47
-8.98
-1.82
4.51
9.74
13.9
17.29
20.37
23.56
27.08
30.79
34.27
36.96
38.34
38.15
36.32
32.91
27.92
21.19
12.4
1.2
-12.67
-29.18
-47.96
-68.24
-88.86
-108.35
-125.09
-137.56
-144.63
-145.8
-141.31
-132.08
-119.47
-104.93
-89.76
-74.88
-60.79
-47.58
-35.04
-22.78
-10.35
2.57
16.04
29.77
43.2
55.72
66.82
76.25
83.93
89.85
93.95
96.12
96.29
94.56
91.17
86.45
80.64
73.85
66.12
57.61
48.69
39.97
32.12
25.63
20.68
17.05
14.24
11.6
8.53
4.61
-0.28
-5.99
-12.11
-18.13
-23.58
-28.13
-31.74
-34.52
-36.71
-38.45
-39.71
-40.35
-40.23
-39.37
-38.03
-36.62
-35.5
-34.78
-34.28
-33.61
-32.4
-30.52
-28.11
-25.61
-23.49
-22.18
-21.9
-22.65
-24.25
-26.42
-28.82
-31.13
-33
-34.1
-34.08
-32.73
-30.03
-26.25
-21.9
-17.69
-14.29
-12.15
-11.42
-11.89
-13.18
-14.77
-16.19
-17.04
-17.06
-16.24
-14.75
-13
-11.53
-10.75
-10.92
-11.96
-13.57
-15.27
-16.59
-17.14
-16.69
-15.11
-12.51
-9.16
-5.53
-2.17
0.46
2.17
3.15
3.96
5.23
7.4
10.51
14.15
17.65
20.3
21.68
21.72
20.66
18.88
16.81
14.74
12.92
11.53
10.74
10.68
11.36
12.69
14.41
16.18
17.65
18.57
18.79
18.26
16.98
14.89
11.94
8.16
3.7
-1.03
-5.48
-9.02
-11.19
-11.81
-10.99
-9.06
-6.39
-3.31
0.02
3.57
7.4
11.57
16.1
20.86
25.62
30.04
33.75
36.41
37.79
37.78
36.51
34.29
31.65
29.29
27.87
27.92
29.6
32.67
36.44
39.97
42.26
42.55
40.44
36
29.7
22.22
14.28
6.54
-0.55
-6.8
-12.22
-17.04
-21.62
-26.37
-31.58
-37.22
-42.82
-47.47
-50.02
-49.43
-45.16
-37.4
-27.1
-15.84
-5.43
2.41
6.34
5.59
0.13
-9.38
-21.54
-34.53
-46.47
-55.84
-61.82
-64.38
-64.16
-62.12
-59.29
-56.57
-54.71
-54.24
-55.39
-57.98
-61.51
-65.25
-68.58
-71.24
-73.37
-75.38
-77.59
-80.02
-82.36
-84.07
-84.62
-83.7
-81.16
-77.09
-71.67
-65.14
-57.84
-50.19
-42.59
-35.35
-28.76
-22.84
-17.37
-12.04
-6.58
-0.89
5.03
11.07
17.08
22.87
28.5
34.32
40.81
48.38
57.16
66.96
77.39
87.84
97.37
105.29
111.26
115.13
116.89
116.5
113.82
108.86
101.31
89.94
74.06
54.07
31.23
7.54
-14.7
-33.59
-47.52
-56.65
-64.34
-74.18
-88.56
-108.63
-133.68
-161.03
-186.54
-204.26
-209.26
-201.26
-181.57
-152.38
-117.38
-80.26
-43.41
-7.17
31.3
74.48
119.68
162.98
200.38
227.3
240.81
241.57
223.91
190.28
166.34
163.61
177.07
198.36
216.32
221.28
208.88
181.6
148.98
121.59
103.78
96.19
96.62
99.85
100.02
92.53
75.09
49.47
19.63
-11.46
-39.37
-59.49
-70.25
-73.78
-74.87
-78.9
-88.44
-102.94
-120.38
-136.55
-147.09
-150.31
-147.38
-140.98
-133.49
-125.18
-115
-102.53
-87.85
-72.42
-59.34
-51.71
-50.5
-54.06
-58.14
-58.61
-53.92
-44.61
-33.18
-23.69
-19.89
-23.21
-32.65
-44.17
-53.56
-58.34
-57.13
-50.7
-43
-39.64
-44.72
-59.35
-78.77
-95.21
-100.53
-86.54
-47.9
14.53
94.24
182.21
268.42
346.69
413.5
455.77
464.8
445.15
411.71
377.26
353.42
330.81
300.9
260.41
211.04
155.16
99.67
48.91
3.04
-39.77
-81.77
-121.25
-155.35
-182.16
-200.62
-211.58
-219.74
-232.02
-254.15
-288.75
-331.54
-373.92
-405.56
-416.64
-401.12
-360.02
-300.54
-232.59
-165.51
-104.38
-50.98
-5.31
33.44
66.18
93.3
115.54
134.73
153.1
172.66
193.43
213.14
228.39
236.35
235.84
227.88
215.31
201.45
188.99
178.8
169.86
160.2
148.4
134.63
121.03
110.84
106.85
109.93
118.31
128.04
134.44
133.68
123.89
105.5
80.65
52.27
23.1
-5.07
-31.51
-56.13
-78.83
-99.06
-115.75
-128.12
-136.6
-143.09
-150.2
-159.51
-170.16
-178.66
-180.38
-171.9
-152.96
-126.76
-98.72
-74.32
-57.25
-48.59
-46.91
-49.16
-51.65
-51.23
-45.94
-35.13
-18.89
2.85
30.77
65.72
107.48
153.6
199.28
238.71
267.19
282.72
286.19
280.13
266.89
247.59
222.36
191.42
156.17
119.23
83.51
50.97
21.65
-6.13
-35.02
-67.3
-103.98
-144.6
-187.56
-231.08
-273.87
-315.28
-355.13
-393.5
-430.96
-468.83
-508.9
-552.39
-598.26
-642.24
-677.29
-696.04
-693.82
-670.8
-631.85
-584.13
-533.95
-484.59
-436.19
-387.46
-337.66
-287.63
-239.34
-194.53
-153.57
-115.19
-77.19
-37.31
5.9
52.55
101.19
148.86
191.42
224.37
244.14
249.29
241.26
224.08
203.3
184.49
172.11
169.08
176.82
195.56
224.3
260.69
300.99
340.61
375.13
401.34
417.91
425.22
424.8
418.33
407.17
391.96
372.8
349.5
321.86
289.98
254.56
217.12
179.85
145.34
116.03
93.71
79.21
72.24
71.23
73.48
75.46
73.62
65.45
50.55
31.01
10.77
-5.89
-16.06
-19.2
-17.01
-12.36
-7.97
-5.58
-5.81
-8.58
-13.57
-20.26
-27.92
-35.57
-42.46
-48.43
-54.32
-61.63
-71.78
-85.31
-101.39
-118.05
-132.91
-144.02
-150.24
-151.49
-148.34
-141.95
-133.9
-126.25
-121.28
-121
-126.59
-137.95
-153.94
-172.59
-191.35
-207.1
-216.27
-215.72
-203.93
-182.34
-155.52
-129.72
-110.24
-98.93
-93.2
-87.46
-76.18
-56.68
-30.26
-1.15
25.99
48.32
65.52
79.07
90.86
101.91
112.35
121.84
130.37
138.5
147.05
156.29
165.27
171.67
172.35
164.47
146.62
119.52
86.16
51.17
19.68
-3.96
-17.49
-21.35
-18.6
-13.78
-11.24
-13.4
-19.98
-28.2
-34.29
-35.21
-29.82
-19.06
-5
10.38
25.94
41.4
56.72
71.43
84.41
94.3
100.12
101.78
99.99
95.73
89.52
81.03
69.26
53.11
32.28
7.86
-17.64
-40.97
-59.06
-70.09
-73.98
-72.27
-67.41
-61.73
-56.69
-52.5
-48.41
-43.28
-36.19
-26.82
-15.53
-3.05
9.72
22
33.32
43.5
52.69
61.2
69.37
77.32
84.79
91.03
94.89
95.03
90.26
79.86
63.91
43.39
20.07
-3.72
-25.64
-43.8
-57.05
-65.24
-68.94
-69.27
-67.45
-64.57
-61.42
-58.42
-55.58
-52.59
-48.97
-44.23
-38.16
-30.81
-22.59
-13.94
-5.09
4.05
13.88
24.86
37.19
50.48
63.74
75.54
84.37
89.02
88.84
83.92
75.01
63.48
51.08
39.69
31.1
26.57
26.59
30.73
37.71
45.7
52.8
57.43
58.66
56.17
50.24
41.44
30.46
18.14
5.28
-7.26
-18.77
-28.87
-37.65
-45.66
-53.69
-62.33
-71.56
-80.65
-88.32
-93.23
-94.43
-91.56
-84.82
-74.83
-62.33
-48.2
-33.28
-18.42
-4.28
8.69
20.38
30.86
40.25
48.67
56.03
62.12
66.52
68.68
67.93
63.73
55.96
45.2
32.69
19.98
8.39
-1.51
-9.99
-17.91
-26.23
-35.55
-45.87
-56.66
-67.11
-76.28
-83.25
-87.15
-87.21
-82.89
-74.07
-61.15
-45.13
-27.43
-9.56
7.13
21.81
34.37
45.37
55.72
66.23
77.12
87.59
96.03
100.51
99.56
92.83
81.34
67.13
52.59
39.74
29.71
22.67
18.14
15.4
13.78
12.83
12.27
11.82
11.19
9.97
7.82
4.41
-0.41
-6.64
-14.08
-22.44
-31.57
-41.57
-52.82
-65.86
-80.96
-97.87
-115.65
-132.79
-147.71
-159.08
-166.07
-168.19
-165.06
-156.13
-140.91
-119.32
-92.12
-61.01
-28.24
4.01
34.18
61.5
85.79
107.05
125.09
139.49
149.61
154.65
153.69
145.83
130.61
108.62
81.91
53.95
28.71
9.52
-2.13
-6.88
-7.07
-5.54
-4.65
-5.74
-9.16
-14.52
-21.16
-28.22
-34.77
-39.93
-43.09
-44.2
-43.68
-42.19
-40.14
-37.42
-33.34
-26.85
-17.06
-3.46
13.88
34.37
56.97
80.3
102.66
122.19
137.17
146.28
148.87
145.11
135.91
122.67
106.99
90.43
74.32
59.74
47.42
37.74
30.75
26.16
23.54
22.4
22.35
23.13
24.47
26.02
27.27
27.49
25.99
22.26
16.13
7.81
-2.24
-13.46
-25.56
-38.63
-53.2
-69.98
-89.51
-111.61
-135.05
-157.72
-176.96
-190.35
-196.41
-195.04
-187.42
-175.56
-161.59
-147.2
-133.25
-119.78
-106.27
-91.98
-76.39
-59.37
-41.23
-22.61
-4.17
13.43
29.62
43.86
55.61
64.38
70.09
73.15
74.72
76.16
78.58
82.25
86.38
89.47
90.08
87.47
81.94
74.69
67.22
60.72
55.73
52.04
49.02
45.97
42.44
38.29
33.62
28.56
23.1
17.15
10.72
4.1
-2.04
-6.9
-9.99
-11.41
-11.9
-12.55
-14.22
-17.14
-20.76
-24.01
-25.85
-25.75
-24
-21.86
-21.48
-25.47
-36.26
-55.14
-81.56
-112.88
-144.89
-172.99
-193.41
-204.16
-205.13
-197.66
-183.72
-165.11
-143.21
-118.9
-92.79
-65.49
-37.68
-10.11
16.36
40.92
62.84
81.56
96.62
107.59
113.96
115.25
111.3
102.67
90.8
77.8
65.87
56.58
50.43
46.92
44.91
43.24
41.14
38.23
34.46
29.85
24.48
18.56
12.36
6.17
0.13
-5.82
-11.7
-17.27
-21.87
-24.69
-25.1
-23.03
-19.06
-14.08
-8.86
-3.73
1.54
7.5
14.85
24.25
36.38
51.56
69.64
89.6
109.46
126.46
137.49
139.83
131.75
113.09
85.44
52.06
17.23
-14.67
-40.29
-58.1
-68.56
-73.55
-75.38
-75.77
-75.32
-73.48
-69.04
-60.67
-47.41
-29.13
-6.62
18.36
43.54
66.73
86.56
102.76
116.24
128.26
139.76
150.65
159.73
165.12
164.95
158.02
144.09
123.86
98.82
71.12
43.38
18.54
-0.62
-12.11
-15.37
-11.73
-4.17
3.34
7.02
4.53
-4.46
-18.17
-33.58
-47.56
-58.02
-64.49
-68.02
-70.53
-73.83
-78.9
-85.67
-93.24
-100.4
-106.16
-109.98
-111.81
-112.11
-111.74
-111.98
-114.34
-120.23
-130.42
-144.54
-160.92
-177
-190.16
-198.5
-201.32
-198.97
-192.35
-182.27
-169.17
-153.13
-134.22
-112.78
-89.48
-65.23
-40.87
-16.89
6.52
29.48
52.19
74.65
96.56
117.25
135.8
151.22
162.76
170.15
173.6
173.67
171.03
166.27
159.89
152.42
144.58
137.33
131.63
128.17
126.94
127.22
127.8
127.41
125.27
121.38
116.52
111.87
108.52
107.05
107.3
108.56
109.89
110.6
110.53
110.08
109.92
110.65
112.48
115.09
117.84
120
121
120.46
118.15
113.9
107.55
98.99
88.17
75.08
59.69
41.89
21.47
-1.73
-27.65
-55.92
-85.74
-115.98
-145.36
-172.63
-196.88
-217.8
-235.65
-251.01
-264.24
-274.8
-281.14
-281.04
-272.57
-255.01
-229.27
-197.66
-163.09
-128.17
-94.82
-64.35
-37.76
-15.99
0.2
10.5
15.25
15.35
11.83
5.59
-2.8
-12.79
-23.71
-34.65
-44.66
-53.02
-59.52
-64.38
-68.11
-71.24
-74.15
-77.03
-79.97
-82.88
-85.59
-87.93
-89.79
-91.25
-92.58
-94.11
-96.09
-98.53
-101.13
-103.23
-103.91
-101.97
-96.11
-85.17
-68.5
-46.29
-19.84
8.74
36.87
62.22
83.34
99.88
112.52
122.55
131.25
139.36
146.79
152.81
156.29
156.28
152.23
144.15
132.5
117.97
101.3
83.26
64.64
46.25
28.95
13.58
0.82
-8.91
-15.63
-19.77
-21.99
-22.98
-23.2
-22.73
-21.29
-18.35
-13.4
-6.01
3.95
16.31
30.53
45.67
60.57
74.14
85.69
95.15
103
109.95
116.29
121.55
124.42
123.27
116.78
104.7
88.13
69.33
50.97
35.33
23.68
15.99
11.2
7.62
3.46
-2.79
-12.12
-25
-41.37
-60.7
-82.01
-103.85
-124.46
-141.95
-154.68
-161.66
-162.88
-159.3
-152.58
-144.41
-135.83
-126.86
-116.57
-103.63
-87.02
-66.55
-43.16
-18.54
5.2
26.13
42.83
54.62
61.64
64.83
65.8
66.46
68.49
72.8
79.23
86.61
93.12
96.94
96.9
92.81
85.53
76.59
67.61
59.79
53.59
48.77
44.7
40.77
36.5
31.55
25.52
17.84
7.84
-5.04
-20.98
-39.69
-60.34
-81.63
-101.82
-118.84
-130.75
-136.23
-135.15
-128.76
-119.14
-108.41
-97.74
-86.94
-74.92
-60.59
-43.77
-25.39
-7.04
9.85
24.69
37.84
49.99
61.58
72.22
80.85
86.11
86.87
82.61
73.43
59.92
43.05
24.18
5.06
-12.24
-25.73
-33.97
-36.56
-34.27
-28.84
-22.42
-16.86
-13.18
-11.3
-10.17
-8.13
-3.45
5.09
17.89
34.39
53.28
72.92
91.68
108.37
122.26
133.14
141.13
146.49
149.21
148.86
144.37
134.39
117.92
95.12
67.82
39.31
13.41
-6.79
-19.97
-26.87
-29.71
-31.16
-33.35
-37.33
-43.1
-50.1
-57.67
-65.36
-72.89
-80.05
-86.49
-91.71
-95.19
-96.57
-96.01
-94.14
-92.01
-90.66
-90.74
-92.24
-94.56
-96.78
-98.06
-97.86
-96
-92.45
-87.15
-79.9
-70.46
-58.79
-45.17
-30.21
-14.66
0.91
16.23
31.44
46.84
62.72
78.98
94.99
109.65
121.65
130.06
134.67
136.09
135.44
133.68
131.13
127.28
121.17
112.04
99.89
85.54
70.21
54.97
40.29
26.08
11.97
-2.23
-16.36
-29.85
-41.98
-52.12
-59.88
-65.18
-68.23
-69.48
-69.51
-68.97
-68.43
-68.25
-68.63
-69.54
-70.84
-72.25
-73.37
-73.59
-72.24
-68.68
-62.59
-54.12
-43.87
-32.78
-21.62
-10.81
-0.26
10.4
21.49
32.98
44.41
55.14
64.56
72.34
78.36
82.58
84.87
85.07
83.24
79.76
75.46
71.21
67.57
64.59
61.79
58.47
54.04
48.17
40.67
31.53
20.77
8.69
-4.03
-16.3
-26.94
-35.07
-40.47
-43.59
-45.21
-46.03
-46.19
-45.27
-42.6
-37.67
-30.52
-21.76
-12.31
-2.86
6.5
16.4
28.02
42.48
60.35
81.18
103.38
124.47
141.71
152.67
155.92
151.42
140.46
125.33
108.66
92.57
78.16
65.37
53.3
40.88
27.45
13.01
-1.8
-16.12
-29.15
-40.4
-49.68
-56.91
-62.02
-64.85
-65.32
-63.5
-59.76
-54.7
-48.99
-43.12
-37.27
-31.3
-24.95
-18.18
-11.42
-5.71
-2.49
-3.2
-8.87
-20.06
-36.87
-59.09
-86.36
-118.01
-152.79
-188.72
-223.04
-252.67
-274.82
-287.54
-290.14
-283.23
-268.53
-248.37
-225.16
-200.93
-176.96
-153.66
-130.69
-107.21
-82.29
-55.43
-26.88
2.01
28.91
50.91
65.47
71.31
68.98
60.8
49.93
39.3
30.45
23.48
17.57
11.95
6.56
2.05
-0.73
-1.44
-0.52
0.95
1.97
2.13
1.9
2.55
5.76
13.16
25.78
43.6
65.08
87.16
105.85
117.42
119.91
114.1
103.54
93.18
87.49
88.53
95.37
104.7
112.55
116.13
114.66
109.43
102.73
96.69
92.54
90.34
89.41
88.75
87.37
84.19
77.74
66.08
47.22
20.08
-14.15
-51.37
-84.97
-107.84
-114.94
-105.31
-82.38
-52.34
-21.47
6.25
29.81
50.31
69.21
86.75
101.54
111.08
112.89
105.53
89.07
65.18
36.6
6.55
-22
-46.85
-66.76
-81.49
-91.37
-97.17
-100.05
-101.55
-103.56
-107.75
-115.09
-125.26
-136.71
-147.2
-154.7
-158.23
-158.01
-155.23
-151.23
-146.7
-141.25
-133.67
-122.7
-108.05
-90.81
-73.06
-56.88
-43.29
-31.78
-20.75
-8.7
4.84
18.95
32.01
42.7
50.81
57.18
63.04
69.14
75.39
81.33
86.74
92.05
98.09
105.25
112.78
118.82
121.28
119.01
112.56
104.04
95.93
89.86
85.8
82.41
77.95
71.28
62.45
52.47
42.67
34.1
27.13
21.51
16.75
12.55
9.1
7.26
8.31
13.47
23.21
36.8
52.25
66.92
78.33
85.08
87.21
85.97
83.1
79.86
76.58
72.63
66.9
58.54
47.44
34.4
20.78
8.05
-2.71
-10.94
-16.65
-20.25
-22.49
-24.36
-27.06
-31.77
-39.28
-49.65
-62.09
-75.03
-86.7
-95.63
-101.2
-103.69
-104.02
-103.34
-102.49
-101.83
-101.28
-100.54
-99.3
-97.44
-94.99
-92.09
-88.87
-85.33
-81.32
-76.62
-71.03
-64.49
-57.23
-49.68
-42.38
-35.77
-29.96
-24.62
-19.01
-12.26
-3.66
6.88
18.65
30.23
39.92
46.26
48.51
46.92
42.57
37.01
31.73
27.74
25.46
24.62
24.5
24.12
22.68
19.78
15.68
11.11
6.97
3.91
2.04
1.01
0.26
-0.5
-1.16
-1.23
-0.13
2.48
6.56
11.81
17.79
24.13
30.59
36.95
43.02
48.7
53.97
59.02
64.02
69.02
73.73
77.49
79.4
78.62
74.59
67.18
56.71
43.97
30.15
16.72
5.26
-2.98
-7.36
-8.2
-6.58
-3.98
-1.69
-0.31
0.29
0.73
1.59
2.99
4.54
5.48
5.18
3.41
0.46
-3.03
-6.41
-9.28
-11.57
-13.4
-14.84
-15.8
-16.04
-15.32
-13.6
-11.1
-8.19
-5.19
-2.22
0.89
4.47
8.72
13.51
18.29
22.24
24.58
24.85
23.13
19.95
16.08
12.24
8.85
5.97
3.48
1.21
-0.89
-2.72
-4.14
-5.09
-5.6
-5.75
-5.68
-5.46
-5.15
-4.78
-4.35
-3.83
-3.19
-2.43
-1.67
-1.09
-0.82
-0.77
-0.63
0.06
1.62
4.04
6.9
9.51
11.23
11.78
11.33
10.38
9.51
9.14
9.33
9.88
10.42
10.68
10.55
10.17
9.89
10.09
11.06
12.87
15.38
18.15
20.61
22.08
22.02
20.19
16.83
12.66
8.68
5.81
4.52
4.64
5.56
6.46
6.72
6.08
4.66
2.73
0.55
-1.78
-4.29
-7.15
-10.53
-14.58
-19.33
-24.66
-30.19
-35.34
-39.37
-41.65
-41.83
-40
-36.68
-32.69
-28.85
-25.75
-23.59
-22.23
-21.25
-20.25
-18.96
-17.38
-15.79
-14.59
-14.18
-14.7
-15.91
-17.23
-17.85
-17.06
-14.59
-10.7
-6.16
-1.99
0.98
2.38
2.44
1.89
1.61
2.22
3.73
5.49
6.37
5.4
2.29
-2.35
-7.18
-10.83
-12.54
-12.51
-11.68
-11.14
-11.56
-12.85
-14.4
-15.49
-15.73
-15.2
-14.27
-13.28
-12.3
-11.17
-9.61
-7.47
-4.86
-2.16
0.1
1.48
1.71
0.9
-0.6
-2.22
-3.44
-3.95
-3.72
-3.08
-2.53
-2.51
-3.24
-4.56
-6
-6.98
-7
-5.95
-4.08
-1.97
-0.19
0.84
1.04
0.68
0.13
-0.3
-0.5
-0.58
-0.73
-1.09
-1.66
-2.35
-3.05
-3.68
-4.19
-4.6
-4.94
-5.25
-5.66
-6.24
-7.07
-8.07
-9.1
-9.97
-10.6
-11.07
-11.47
-11.92
-12.37
-12.72
-12.85
-12.79
-12.7
-12.81
-13.29
-14.17
-15.29
-16.43
-17.44
-18.29
-19.06
-19.79
-20.45
-20.85
-20.77
-20.09
-18.86
-17.41
-16.12
-15.26
-14.75
-14.12
-12.74
-10.07
-5.97
-0.82
4.61
9.49
13.2
15.54
16.65
16.89
16.65
16.25
15.92
15.87
16.3
17.38
19.2
21.69
24.56
27.38
29.72
31.28
32.01
32.18
32.14
32.21
32.42
32.56
32.25
31.19
29.42
27.31
25.48
24.48
24.53
25.36
26.31
26.55
25.48
22.92
19.18
14.97
11.06
8.05
6.12
5.05
4.3
3.32
1.73
-0.55
-3.27
-6.1
-8.68
-10.86
-12.63
-14.14
-15.57
-17.08
-18.78
-20.66
-22.65
-24.6
-26.39
-27.98
-29.48
-31.08
-32.9
-34.84
-36.51
-37.38
-36.96
-35.02
-31.65
-27.24
-22.26
-17.2
-12.48
-8.42
-5.13
-2.5
-0.14
2.44
5.65
9.54
13.82
18.04
21.8
24.94
27.45
29.37
30.58
30.89
30.13
28.42
26.17
23.96
22.32
21.51
21.46
21.79
22.08
21.93
21.15
19.77
18.06
16.39
15.18
14.7
14.96
15.72
16.52
16.97
16.81
16.04
14.89
13.6
12.26
10.77
8.91
6.49
3.61
0.67
-1.76
-3.23
-3.65
-3.36
-2.93
-2.87
-3.4
-4.31
-5.28
-6.11
-6.93
-8.16
-10.24
-13.27
-16.8
-20.02
-21.93
-21.87
-19.64
-15.5
-9.97
-3.62
3.03
9.46
15.1
19.39
22.01
23.01
23
22.81
23.14
24.22
25.61
26.49
26.05
23.9
20.23
15.68
10.87
6.23
1.79
-2.66
-7.29
-12.06
-16.7
-20.81
-24.07
-26.43
-28.01
-29.03
-29.59
-29.64
-29.08
-27.87
-26.22
-24.39
-22.61
-20.86
-18.81
-16.07
-12.39
-7.91
-3.18
1.06
4.11
5.61
5.61
4.46
2.68
0.7
-1.23
-3.03
-4.68
-6.15
-7.37
-8.29
-8.94
-9.49
-10.2
-11.25
-12.67
-14.31
-15.89
-17.16
-17.99
-18.34
-18.23
-17.65
-16.56
-14.92
-12.77
-10.28
-7.69
-5.32
-3.38
-1.96
-0.94
-0.07
0.97
2.33
3.98
5.68
7.06
7.82
7.86
7.36
6.77
6.69
7.74
10.3
14.31
19.12
23.66
26.76
27.64
26.25
23.33
20.16
17.93
17.36
18.45
20.64
23.22
25.73
28.05
30.4
33.06
36.15
39.6
43.2
46.76
50.17
53.41
56.5
59.43
62.1
64.41
66.38
68.11
69.88
72.03
74.81
78.36
82.54
87.03
91.44
95.46
99.16
102.95
107.38
112.83
119.08
125.2
129.8
131.67
130.42
126.74
122.05
117.77
114.36
111
105.82
96.64
81.85
60.9
34.32
3.3
-30.75
-66.81
-104.57
-144.61
-188.16
-236.39
-289.59
-346.13
-401.97
-451.01
-486.29
-501.67
-493.34
-461.19
-409.32
-345.64
-280.44
-224.03
-183.99
-162.91
-157.67
-160.7
-162.88
-156.92
-139.76
-112.89
-80.82
-48.57
-19.49
5.53
27.4
47.35
65.81
82.22
95.61
105.52
112.42
117.57
122.15
126.53
130.12
131.97
131.46
129.03
126.18
124.74
125.92
129.59
134.23
137.56
137.55
133.28
125.37
115.63
106.22
98.52
92.33
85.85
76.39
61.79
41.59
17.58
-6.75
-27.51
-41.95
-49.35
-50.87
-48.58
-44.14
-38.19
-30.38
-20.33
-8.31
4.46
16.19
25.39
31.35
34.29
34.9
33.99
32.17
29.89
27.54
25.58
24.46
24.5
25.69
27.7
29.92
31.45
31.33
28.76
23.46
15.85
7.1
-1.23
-7.68
-11.47
-12.65
-12.03
-10.67
-9.53
-9.05
-9.23
-9.74
-10.21
-10.46
-10.53
-10.68
-11.24
-12.51
-14.63
-17.54
-20.94
-24.32
-27.08
-28.6
-28.54
-26.92
-24.21
-21.12
-18.38
-16.44
-15.33
-14.79
-14.42
-13.95
-13.31
-12.49
-11.41
-9.79
-7.3
-3.8
0.41
4.57
7.72
9.07
8.35
5.9
2.5
-0.99
-3.89
-5.92
-7.13
-7.78
-8.17
-8.52
-8.88
-9.16
-9.2
-8.88
-8.2
-7.41
-6.87
-6.9
-7.66
-9.09
-10.98
-13.13
-15.44
-17.96
-20.74
-23.72
-26.64
-29.08
-30.68
-31.25
-30.89
-29.89
-28.55
-26.95
-24.95
-22.3
-18.89
-14.94
-10.94
-7.41
-4.65
-2.56
-0.8
0.9
2.55
3.85
4.35
3.76
2.01
-0.74
-4.17
-7.85
-11.22
-13.59
-14.34
-13.21
-10.54
-7.33
-4.8
-3.91
-4.97
-7.5
-10.64
-13.51
-15.6
-16.88
-17.48
-17.56
-17.13
-16.12
-14.62
-12.93
-11.59
-11.1
-11.65
-13.01
-14.61
-15.83
-16.37
-16.38
-16.42
-17.11
-18.86
-21.65
-25.01
-28.24
-30.63
-31.64
-31.08
-29.03
-25.88
-22.19
-18.55
-15.58
-13.62
-12.84
-13.13
-14.11
-15.31
-16.29
-16.87
-17.18
-17.61
-18.62
-20.64
-23.8
-27.71
-31.18
-32.24
-28.54
-18.29
-1.23
20.82
44.37
65.56
81.65
92.06
98.28
102.7
107.22
112.28
116.97
119.86
120.06
117.76
113.9
109.73
106.04
102.83
99.6
95.67
90.51
83.89
75.65
65.59
53.54
39.59
24.47
9.63
-3.08
-12.05
-16.54
-17.02
-14.95
-12.26
-10.69
-11.34
-14.52
-19.77
-26.14
-32.34
-37.03
-39.11
-37.98
-33.78
-27.3
-19.78
-12.59
-6.78
-2.8
-0.42
1.13
2.73
4.91
7.55
9.82
10.59
9.01
5.04
-0.37
-5.6
-9.01
-9.8
-8.39
-6.3
-5.54
-7.51
-12.47
-19.35
-26.22
-31.18
-33.02
-31.46
-27.16
-21.62
-17.08
-16.47
-22.56
-36.66
-57.15
-79.05
-95.25
-99.29
-88.3
-64.47
-34.12
-4.79
18.14
33.44
43.68
53.01
64.72
79.76
96.94
114.09
129.36
141.75
150.73
155.81
156.07
150.5
138.58
120.79
98.79
75.02
51.95
31.21
13.32
-2.28
-16.62
-30.67
-44.79
-58.63
-71.34
-81.9
-89.52
-93.81
-95
-93.77
-91.11
-87.93
-84.79
-81.78
-78.62
-74.95
-70.59
-65.72
-60.66
-55.82
-51.32
-47.14
-43.21
-39.5
-36.04
-33
-30.7
-29.81
-31.33
-36.17
-44.45
-54.83
-64.37
-69.41
-66.98
-56.17
-38.65
-17.88
2.39
19.67
33.46
45
56.25
68.93
83.92
101.12
119.69
138.24
155
168.06
175.79
176.97
171.26
159.17
141.86
120.88
97.85
74.22
51.14
29.37
9.27
-9.11
-25.82
-40.8
-53.64
-63.58
-69.73
-71.43
-68.6
-61.98
-53.15
-44.12
-36.81
-32.56
-31.75
-33.88
-37.9
-42.6
-46.99
-50.51
-53.18
-55.79
-59.7
-66.53
-77.4
-92.11
-108.62
-123.3
-132.12
-132.1
-122.55
-105.1
-82.85
-58.88
-35.08
-11.84
11.28
34.68
58.04
80.46
100.95
119.07
134.85
148.55
159.98
168.29
172.15
170.49
163.06
150.59
134.5
116.28
96.98
77.1
56.84
36.43
16.46
-2.15
-18.55
-32.03
-42.22
-49.1
-52.94
-54.09
-53.17
-51.16
-49.6
-50.51
-55.73
-66.24
-81.35
-98.66
-114.69
-126.18
-131.27
-130.12
-124.46
-116.44
-107.44
-97.49
-85.56
-70.52
-52.03
-30.89
-8.71
12.82
32.51
49.84
64.77
77.46
87.84
95.64
100.69
103.25
104.32
105.55
108.73
115.06
124.39
134.95
143.59
146.75
141.65
127.35
105.27
78.74
52
28.74
11
-1.3
-9.96
-17.54
-26.18
-36.86
-49
-60.95
-70.66
-76.46
-77.66
-74.93
-70.26
-66.56
-66.83
-73
-85.02
-100.51
-115.5
-125.88
-129.02
-124.76
-115.14
-103.24
-91.46
-80.59
-69.72
-57.15
-41.57
-22.79
-1.6
20.77
43.35
65.71
87.6
108.47
127.25
142.33
152.2
156.01
153.7
145.95
133.66
117.58
98.36
76.73
53.86
31.36
10.9
-6.39
-20.32
-31.61
-41.48
-50.76
-59.61
-67.43
-73.31
-76.67
-77.61
-76.84
-75.38
-74.25
-74.39
-76.65
-81.67
-89.54
-99.35
-109.06
-116.05
-118.06
-114.13
-104.9
-92.16
-77.75
-62.8
-47.49
-31.46
-14.5
3.08
20.62
37.6
53.98
70.14
86.41
102.47
117.34
129.45
137.28
139.86
137.01
129.46
118.51
105.69
92.28
79.04
66.19
53.68
41.45
29.81
19.36
10.85
4.74
1.05
-0.68
-1.18
-1.05
-0.68
-0.25
-0.05
-0.57
-2.43
-6.03
-11.23
-17.28
-22.98
-27.19
-29.11
-28.55
-25.88
-21.84
-17.43
-13.61
-11.19
-10.48
-11.24
-12.63
-13.48
-12.76
-9.98
-5.42
-0.16
4.03
4.84
-0.2
-12.91
-33.47
-59.61
-86.76
-109.35
-122.78
-125.08
-117.44
-103.22
-86.14
-68.7
-51.61
-34.33
-16.23
2.56
21.13
38.25
53.06
65.36
75.47
83.62
89.83
93.63
94.29
91.04
83.41
71.43
55.89
38.37
21.01
6.09
-4.57
-10.25
-11.64
-10.69
-9.9
-11.31
-15.62
-21.93
-28.19
-32.14
-32.33
-28.49
-21.41
-12.34
-2.3
8.13
18.72
29.29
39.44
48.59
56.15
61.72
65.16
66.4
65.29
61.57
54.86
44.97
32.08
16.92
0.81
-14.6
-27.72
-37.73
-44.96
-51.06
-58.25
-68.35
-81.71
-96.78
-110.64
-120.13
-123.12
-119.24
-109.72
-96.6
-81.79
-66.5
-51.22
-36.13
-21.35
-7.17
6.2
18.75
30.64
42
52.72
62.61
71.29
78.63
84.71
89.73
93.8
96.65
97.52
95.32
88.99
77.93
62.46
43.94
24.64
7.12
-6.51
-15.14
-18.97
-19.31
-17.92
-16.36
-15.52
-15.45
-15.7
-15.81
-15.64
-15.55
-16.18
-18.11
-21.39
-25.49
-29.38
-31.91
-32.27
-30.13
-25.61
-19.18
-11.67
-4.41
0.72
1.75
-2.6
-11.96
-24.06
-35.35
-42.38
-43.37
-38.93
-31.52
-24.08
-18.61
-15.41
-13.35
-10.89
-7
-1.54
5.08
12.41
20.29
28.7
37.42
45.62
51.93
54.84
53.42
47.78
39.13
29.38
20.46
13.66
9.44
7.46
7.03
7.41
8.14
9
9.95
10.98
12.07
13.15
14.18
15.11
15.92
16.47
16.67
16.47
16.04
15.77
16.06
17.18
18.94
20.79
22.06
22.35
21.66
20.49
19.46
18.93
18.91
19.09
18.88
17.45
13.62
6.08
-6.05
-22.43
-41.11
-58.87
-72.45
-79.95
-81.73
-80.07
-77.87
-77.04
-77.56
-77.82
-75.7
-69.85
-60.3
-48.25
-35.11
-21.92
-9.07
3.31
14.93
25.16
33.02
37.7
38.96
37.26
33.67
29.46
25.78
23.32
22.33
22.56
23.48
24.43
24.83
24.4
23.28
21.98
21.16
21.3
22.55
24.6
26.96
29.12
30.75
31.73
32.06
31.75
30.89
29.61
28.23
27.24
27.13
28.25
30.64
33.9
37.02
38.4
36.13
28.66
15.59
-1.79
-20.62
-37.42
-49.45
-55.73
-57.32
-56.46
-55.38
-55.19
-55.59
-55.31
-53.04
-48.17
-41.07
-32.85
-24.76
-17.75
-12.15
-7.68
-3.67
0.53
5.27
10.4
15.24
18.8
20.04
18.31
13.62
6.72
-1.11
-8.4
-14.02
-17.55
-19.23
-19.8
-19.87
-19.65
-18.84
-17.03
-14.09
-10.5
-7.31
-5.59
-5.95
-8.33
-11.89
-15.53
-18.31
-19.82
-20.01
-19.26
-18.23
-18.02
-20.22
-26.47
-37.8
-53.7
-71.71
-87.98
-98.67
-101.57
-96.95
-87.39
-76.31
-66.37
-58.41
-51.46
-43.78
-33.98
-21.76
-7.86
6.58
20.64
33.91
46.45
58.58
70.33
81.45
91.45
99.61
105.15
107.34
105.6
99.72
90.05
77.53
63.66
50.11
38.29
28.92
21.91
16.55
11.81
7.03
2.17
-2.19
-5.24
-6.31
-5.43
-3.48
-2.15
-3.67
-10
-22.11
-39.24
-58.63
-76.2
-87.7
-90.24
-83.34
-68.95
-50.55
-31.76
-15.18
-1.92
8.16
15.86
22.17
28.19
35.07
44.01
55.84
70.68
87.66
104.81
119.39
128.31
128.84
119.28
99.8
72.61
41.78
12.12
-12.23
-29.04
-38.45
-42.38
-43.33
-43.2
-42.77
-42.04
-40.93
-39.91
-39.93
-41.95
-46.23
-52.1
-58.13
-62.87
-65.46
-65.97
-65.21
-64.13
-63.32
-62.74
-61.8
-59.74
-56.14
-51.23
-45.92
-41.45
-39.06
-39.22
-41.71
-45.42
-48.81
-50.43
-49.27
-45.1
-38.54
-30.94
-24.14
-20.05
-19.95
-24
-30.91
-38.36
-43.78
-45.36
-42.81
-37.32
-30.98
-25.53
-21.51
-17.85
-12.41
-3.07
11.24
30.04
51.47
73.09
92.69
108.87
120.92
128.82
132.7
132.94
130.4
126.47
122.85
120.87
120.76
121.45
121.02
117.6
110.32
99.73
87.67
76.6
68.83
65.88
67.99
73.97
81.44
87.32
88.95
84.85
75.47
62.94
50.29
40.27
34.37
32.28
31.92
30.07
23.4
9.62
-11.38
-37.1
-62.85
-83.45
-95.06
-96.66
-90.22
-79.51
-68.24
-58.6
-50.99
-44.74
-39.27
-34.85
-32.55
-33.55
-38.43
-46.87
-57.9
-70.56
-84.13
-98.07
-111.51
-123.01
-130.72
-133.17
-129.87
-121.64
-110.18
-97.34
-84.34
-71.87
-60.52
-51.59
-46.97
-48.17
-54.94
-64.48
-72.07
-72.94
-64.53
-47.67
-26.13
-4.73
12.91
25.46
33.61
38.73
41.42
41.12
36.79
28.22
16.83
5.53
-2.56
-5.59
-3.86
0.31
3.59
3.2
-1.88
-10.6
-20.26
-27.6
-29.7
-24.69
-11.9
8
33.15
60.59
86.64
107.68
121.07
125.9
123.23
115.57
105.88
96.53
88.6
82.05
76.25
70.74
65.62
61.36
58.53
57.26
56.78
55.35
50.46
39.78
22.31
-0.71
-25.74
-48.04
-63.48
-70.18
-69.15
-63.47
-56.59
-50.87
-46.98
-44.57
-43.33
-43.64
-46.36
-51.92
-59.51
-67.13
-72.41
-73.66
-70.7
-64.75
-57.78
-51.5
-46.67
-43
-39.46
-34.83
-28.24
-19.56
-9.51
0.51
8.77
13.8
14.9
12.43
7.7
2.42
-1.95
-4.71
-5.86
-5.5
-3.32
1.59
10.23
22.89
38.42
54.33
67.61
75.83
78.03
74.75
67.36
57.16
44.97
31.32
17.02
3.62
-6.7
-11.79
-10.38
-2.7
9.67
24.42
39.34
52.99
64.97
75.6
85.48
94.98
104
111.93
117.75
120.35
118.72
112.35
101.45
87.2
71.49
56.47
43.85
34.28
27.24
21.43
15.63
9.18
2.29
-4.31
-9.87
-14.04
-16.96
-18.99
-20.53
-21.82
-23.02
-24.29
-25.95
-28.33
-31.62
-35.79
-40.54
-45.43
-49.99
-53.87
-56.88
-58.91
-59.91
-59.79
-58.47
-55.88
-52.05
-47.14
-41.43
-35.28
-29.07
-23.15
-17.82
-13.35
-9.93
-7.62
-6.31
-5.68
-5.35
-4.93
-4.22
-3.24
-2.26
-1.62
-1.71
-2.79
-5.04
-8.57
-13.54
-20.18
-28.69
-39.02
-50.63
-62.47
-73.14
-81.31
-86.22
-87.91
-87.22
-85.47
-83.9
-83.24
-83.48
-84.04
-84.03
-82.67
-79.54
-74.65
-68.38
-61.29
-53.98
-46.86
-40.12
-33.7
-27.4
-20.99
-14.33
-7.42
-0.37
6.52
12.89
18.23
22.13
24.34
24.92
24.31
23.2
22.36
22.34
23.31
25.08
27.15
28.99
30.21
30.7
30.67
30.57
30.86
31.81
33.34
35.03
36.28
36.61
35.87
34.26
32.22
30.18
28.43
27.07
26.09
25.46
25.13
25.06
25.16
25.36
25.61
25.98
26.59
27.47
28.36
28.7
27.69
24.62
19.26
12.02
3.99
-3.46
-9.11
-12.23
-12.77
-11.17
-8.22
-4.65
-1.06
2.17
4.83
6.84
8.25
9.19
9.74
9.89
9.45
8.14
5.78
2.49
-1.28
-4.82
-7.49
-8.87
-8.83
-7.48
-4.97
-1.46
2.85
7.5
11.73
14.56
15.18
13.18
8.84
2.97
-3.42
-9.41
-14.48
-18.48
-21.42
-23.31
-23.99
-23.15
-20.57
-16.25
-10.67
-4.66
0.78
4.92
7.63
9.56
11.97
16.29
23.5
33.68
45.81
58.03
68.14
74.33
75.62
72.06
64.53
54.35
42.85
31.16
20.13
10.46
2.67
-2.88
-6.17
-7.56
-7.66
-7.09
-6.22
-5.05
-3.42
-1.24
1.31
3.73
5.46
6.04
5.23
3.01
-0.47
-4.94
-10
-14.98
-19.06
-21.45
-21.61
-19.46
-15.34
-9.89
-3.82
2.2
7.51
11.52
13.63
13.41
10.71
5.76
-0.86
-8.26
-15.46
-21.47
-25.42
-26.77
-25.37
-21.64
-16.49
-11.22
-7.09
-5.01
-5.18
-7.09
-9.68
-11.72
-12.18
-10.53
-6.82
-1.54
4.44
10.21
14.93
17.99
19.1
18.25
15.72
11.97
7.6
3.19
-0.78
-3.99
-6.34
-7.85
-8.52
-8.28
-6.92
-4.19
0.01
5.45
11.57
17.5
22.31
25.25
25.93
24.44
21.22
16.98
12.47
8.33
4.99
2.62
1.24
0.86
1.53
3.35
6.26
10.02
14.17
18.13
21.54
24.32
26.81
29.45
32.54
35.94
39.01
40.81
40.55
37.96
33.62
28.85
25.36
24.59
27.12
32.43
39.1
45.34
49.85
52.21
52.97
53.16
53.65
54.69
55.85
56.47
56.17
55.3
54.89
56.3
60.81
69.26
81.8
97.74
115.12
130.58
139.71
138.2
123.81
97.99
66.01
35.07
11.18
-3.83
-13.21
-23.68
-42.2
-73.11
-116.89
-171.05
-231.71
-294.74
-355.81
-409.88
-451.23
-474.55
-476.66
-457.85
-421.92
-374.9
-323.2
-272.23
-225.91
-186.7
-155.93
-134.07
-120.77
-115.15
-116
-122.02
-131.76
-143.45
-154.77
-163.2
-166.18
-161.44
-147.03
-121.26
-83.05
-32.8
26.69
89.71
148.54
195.55
225.84
238.83
238.28
230.52
221.99
217.31
218.43
224.83
234.3
243.56
248.84
246.42
233.37
208.31
171.96
127.25
78.69
31.58
-9.16
-39.66
-57.49
-61.59
-51.86
-28.75
7.06
54.3
110.55
171.43
230.79
281.82
319.01
339.91
345.6
339.58
325.59
305.75
280.12
247.84
208.82
165.02
120.15
78.15
41.3
9.17
-20.93
-52.56
-88.44
-129.56
-174.9
-221.54
-265.17
-300.46
-322.04
-325.82
-310.51
-278.28
-234.24
-184.37
-133.13
-81.83
-28.62
29.74
95.4
167.33
240.86
308.76
363.47
399.3
413.69
407.36
383.41
345.96
299.03
245.97
189.37
131.14
72.7
15.22
-40
-91.21
-136
-171.56
-195.6
-207.48
-208.81
-203.32
-195.56
-189.31
-186.37
-186.42
-187.71
-188.38
-187.18
-183.75
-178.25
-171.01
-162.44
-153.38
-145.32
-140.17
-139.25
-141.92
-144.5
-140.87
-124.7
-92.59
-46.65
5.2
51.84
83.11
93.82
85.36
64.25
38.82
15.64
-2.26
-14.87
-23.35
-28.36
-29.6
-26.52
-19.52
-10.27
-1.36
4.67
6.32
3.59
-2.11
-8.51
-13.07
-13.6
-8.78
1.64
16.74
34.67
52.88
68.54
79.1
83
80.37
72.95
63.85
56.15
51
46.44
38.1
21.54
-4.75
-37.87
-71.53
-98.28
-112.39
-111.36
-95.78
-67.81
-29.99
14.97
63.37
109.43
147.01
172.06
184.39
187.52
186.62
185.95
187.06
188.8
186.88
178.21
163.02
144.36
125.54
107.95
91.13
74.09
56.59
35.55
9.75
-18.54
-44.36
-63.02
-72.03
-70.8
-60.04
-41.6
-25.11
-19.7
-29.18
-51.17
-80.6
-112.99
-145.13
-175.07
-202.22
-235.9
-284.45
-349.24
-424.69
-503.71
-582.15
-659.19
-735.7
-758.93
-696.97
-558.8
-388.27
-228.07
-98.2
-0.26
71.77
125.16
166.14
190.97
196.6
186.37
168.96
152.84
142.62
139.21
141.76
149.27
154.53
149.23
135.39
119.05
105.58
97.4
94.18
94.51
96.97
96.73
90.44
78.99
65.94
54.05
43.65
32.8
18.65
-0.42
-25.21
-53
-76.97
-83.36
-62.2
-9.55
71.24
170.11
272.76
363.37
428.81
461.63
460.41
428.67
374.93
311.47
252.26
209.6
190.12
192.18
206.05
217.44
212.44
183.3
130.51
60.61
-17.69
-96.61
-169.77
-230.97
-274.03
-294.4
-291.64
-270.78
-240.55
-208.77
-178.04
-145.34
-105.33
-55.98
-1.98
45.91
75.82
80.24
58.46
15.51
-41.76
-107.93
-179.64
-253.85
-325.81
-388.52
-434.88
-460.57
-465.95
-455.95
-437.17
-414.78
-390.53
-363.16
-330.34
-291.17
-247.64
-203.83
-164.26
-131.67
-106.15
-85.43
-66.32
-46.11
-23.73
-0.06
23.26
44.34
62.43
78.43
94.41
112.67
135.34
163.96
199.46
241.8
288.96
335.73
373.42
391.41
380.96
339.49
273.03
195.48
124.34
74.98
56.49
70.49
112.79
175.96
251.13
328.26
396.33
444.79
466.34
459.78
430.95
390.22
348
309.92
274.95
236.63
187.28
122.24
42.73
-43.55
-124.34
-186.11
-218.15
-216.37
-185.67
-139.61
-96.14
-70.87
-70.52
-89.84
-114.17
-126.59
-116.28
-83.35
-37.81
6.41
39.02
57.78
68.09
78.06
92.64
110.06
123.02
122.82
104.21
68.37
22.61
-22.88
-58.85
-79.88
-85.56
-79.3
-66.48
-52.46
-41.39
-35.6
-35.3
-38.51
-41.23
-38.55
-26.48
-4.08
25.22
54.5
75.45
81.34
69.09
39.42
-4.71
-60.31
-125.16
-196.85
-270.76
-338.88
-390.62
-416.21
-410.68
-376.31
-321.9
-259.34
-199.23
-147.72
-106.35
-73.78
-48.58
-30.61
-20.71
-19.38
-25.04
-33.41
-37.9
-31.31
-8.38
31.5
82.34
132.56
169.02
183.1
175.86
158.88
149.42
162.2
201.95
261.01
323.16
371.57
395.83
394.68
373.77
340.42
299.34
251.51
195.94
132.43
62.88
-9.34
-81.04
-150.23
-215.65
-275.48
-325.97
-361.71
-377.31
-369.21
-337.5
-286.34
-223.27
-157.73
-99.71
-57.59
-36.19
-35.27
-49.63
-71.37
-93.69
-114.1
-135.39
-162.67
-198.65
-240.22
-278.12
-300.77
-299.97
-274.82
-231.9
-181.62
-133.01
-90.09
-51.4
-12.16
32.46
84.85
144.14
206.45
265.48
313.8
344.21
351.72
335.39
299.83
254.15
209.59
175.84
158.15
156.27
165.67
180.2
194.69
206.31
214.43
219.53
222.07
222.12
219.78
215.87
212.36
211.82
216.29
225.99
238.89
251.19
258.76
258.59
249.74
233.04
210.46
184.09
155.45
125.31
94.18
62.96
33.27
7.28
-13.07
-26.78
-34.21
-37.06
-37.78
-38.74
-41.66
-47.52
-56.88
-70.82
-90.88
-118.78
-156.21
-204.62
-264.98
-336.97
-418.16
-502.92
-583.68
-651.23
-696.74
-714.52
-703.9
-669.24
-617.53
-556.16
-490.33
-424.88
-362.61
-304.29
-249.24
-196.19
-143.95
-90.63
-34.86
25.22
87.29
147.87
202.88
247.71
276.9
284.96
269.59
231.61
177.41
111.59
39.59
-32.51
-98.9
-155.38
-200.3
-232.96
-255.65
-242.96
-182.44
-81.76
33.36
136.58
214.29
258.92
280.57
285.3
277.29
252.57
206.58
140.83
61.58
-20.86
-94.84
-149.09
-178.64
-181.35
-165.16
-140.5
-115.09
-90.78
-64.03
-29.84
20.39
72.55
119.13
147.33
148.22
121.63
76.35
26.09
-16.59
-43.77
-55.31
-51.92
-36.65
-10.72
25.79
71.41
121.3
167.5
202.52
222.3
231.58
239.11
254.21
280.87
315.98
351.13
377.14
388.57
384.86
371.24
354.11
337.48
320.2
298.92
271.5
239.27
206.22
176.11
151.53
133.38
119.44
104.08
82.89
55.33
25.39
-1.09
-20.46
-31.91
-36.15
-37.76
-45.5
-66.86
-104.75
-156.7
-217.45
-283.89
-354.92
-429.32
-484.49
-500.95
-473.24
-414.34
-343.16
-271.69
-205.11
-157.07
-120.85
-93.28
-78.25
-81.54
-107.18
-155.62
-214.49
-274.2
-325.13
-356.94
-365.24
-353.56
-329.95
-303
-278.08
-256.15
-236.64
-217.24
-194.37
-168.04
-141.56
-118.51
-100.35
-85.63
-71.25
-55.87
-39.43
-22.22
-6.54
4.78
10.13
9.82
5.85
0.87
-3.86
-8.09
-11.99
-16.77
-23.67
-33.16
-44.58
-56.43
-66.94
-75.11
-80.57
-83.37
-84.13
-83.42
-81.5
-78.32
-73.66
-67.29
-59.34
-50.17
-40.29
-30.21
-20.28
-10.62
-1.23
7.96
16.92
25.48
33.38
40.42
46.6
52.13
57.44
62.97
69.02
75.59
82.45
89.22
95.64
101.73
107.89
114.77
123
132.98
144.66
157.62
171.29
185.13
198.96
212.9
227.38
243
260.54
280.76
304.07
329.99
356.65
380.86
398.79
407.15
404.43
391.39
370.71
345.86
319.9
294.67
270.83
248.33
226.96
206.64
187.35
168.95
151.12
133.48
115.84
98.26
81
64.4
48.84
34.68
22.29
11.94
3.62
-3.06
-8.71
-13.95
-18.97
-23.55
-27.37
-30.42
-33.29
-36.8
-41.42
-46.57
-50.61
-51.51
-47.97
-40.28
-30.3
-20.53
-12.93
-8.08
-5.25
-3.27
-1.5
-0.3
-0.77
-3.85
-9.56
-16.78
-23.73
-28.79
-31.15
-31.02
-29.18
-26.53
-23.61
-20.55
-17.39
-14.29
-11.75
-10.32
-10.4
-11.88
-14.23
-16.67
-18.49
-19.25
-18.79
-17.15
-14.46
-10.88
-6.62
-1.98
2.66
6.88
10.29
12.55
13.43
12.88
11.07
8.45
5.77
4.02
4.22
7.21
13.38
22.55
34.04
46.85
60.07
73.12
85.81
98.36
110.99
123.81
136.67
149.33
161.71
174.03
186.75
200.35
215.09
230.89
247.31
263.68
279.17
292.72
303.12
309.08
309.45
303.48
291.01
272.46
248.8
221.42
191.95
162.05
132.95
105.1
77.8
49.34
17.57
-19.3
-61.97
-110.01
-161.92
-215.43
-267.65
-315.35
-355.76
-388.04
-414.67
-441.47
-475.62
-521.93
-579.46
-640.59
-693.51
-727.3
-736.66
-723.94
-697.2
-665.69
-635.43
-607.48
-579.04
-546.49
-508.01
-464.08
-416.18
-365.03
-310.06
-250.66
-188.24
-127.27
-74.35
-35.61
-13.58
-5.79
-5.6
-5.21
1.14
15.25
35.13
56.82
76.73
92.98
105.67
116.27
126.82
139.59
157.19
182.66
218.91
267.21
325.66
387.93
443.98
482.85
496.17
481.29
441.9
385.99
322.07
255.95
189.65
122.68
54.54
-13.56
-78.55
-136.73
-185.15
-222.31
-247.72
-261.32
-263.17
-253.93
-235.24
-210.08
-182.16
-154.97
-130.73
-109.96
-91.49
-73.01
-51.88
-26.16
4.57
38.55
72.07
100.59
120.1
128.4
125.59
113.88
96.8
78.28
61.99
50.91
46.82
49.88
58.42
69.33
79.01
84.61
84.75
79.44
69.37
55.29
37.93
18.53
-0.53
-15.83
-23.72
-21.77
-9.76
10.13
34.1
57.86
77.76
91.41
97.89
97.7
92.54
84.86
76.98
70.34
65.09
60.44
55.52
50.07
44.68
40.29
37.47
36.22
36.22
37.39
40.17
45.3
53.35
64.25
77.25
90.88
103.2
111.99
115.07
110.86
98.6
78.52
51.46
18.46
-19.41
-60.71
-103.08
-143.01
-176.35
-199.62
-211.29
-212.48
-206.4
-196.97
-187.31
-178.86
-171.41
-163.46
-153.21
-139.26
-121.38
-100.76
-79.51
-59.43
-40.56
-20.66
3.47
33.57
67.65
99.91
123.34
133.55
131.6
123.79
118.12
119.86
128.59
138.8
143.48
138.43
124.45
106.54
90.9
81.72
79.8
83.14
88.59
93.25
95.16
93.17
86.75
76.04
61.99
46.43
31.68
19.91
12.49
9.78
11.35
16.26
23.5
32.02
40.93
49.52
57.42
64.65
71.43
77.94
83.8
88
88.86
84.68
74.33
57.76
36.21
11.99
-12.2
-33.95
-51.85
-65.69
-76.25
-84.74
-92.18
-98.92
-104.56
-108.21
-108.97
-106.36
-100.66
-92.76
-83.87
-75.02
-66.67
-58.66
-50.46
-41.51
-31.62
-21.09
-10.52
-0.58
8.22
15.53
21.09
24.46
25.12
22.5
16.31
6.86
-4.8
-17.14
-28.52
-37.87
-44.94
-50.32
-54.9
-59.29
-63.51
-67.1
-69.69
-71.3
-72.37
-73.26
-73.69
-72.56
-68.54
-60.93
-50.4
-38.87
-28.54
-20.64
-14.75
-9.21
-2.19
6.99
17.45
27.14
33.82
36.32
34.61
29.86
23.59
17.09
11.05
5.54
0.34
-5.02
-11.1
-18.65
-28.25
-39.7
-51.17
-58.86
-57.64
-42.86
-12.77
29.86
77.8
121.73
153.68
169.93
172.01
165.18
155.74
148.23
144.26
142.91
142.21
140.61
137.56
133.53
129.12
124.43
118.75
110.78
99.27
83.73
65
45.14
26.75
11.91
1.31
-6.09
-12.65
-21.19
-33.97
-52.08
-75.22
-101.82
-129.56
-155.9
-178.56
-195.9
-206.84
-210.77
-207.4
-196.78
-179.39
-156.1
-127.78
-94.7
-56.23
-11.35
40.02
95.43
149.21
193.34
219.99
224.56
207.79
175.68
137.45
102.4
77.11
64.2
62.56
68.65
78.04
86.79
92.27
93.62
91.62
88.13
85.05
83.21
81.82
78.81
72.09
61.07
47.47
34.86
27.07
26.38
32.5
42.88
54.11
63.34
68.97
70.42
67.37
59.36
46.31
29.44
11.72
-2.85
-11.09
-12.45
-9.94
-8.98
-15.22
-32.24
-60.46
-97.81
-141.61
-190.33
-243.9
-302.46
-364.29
-424.71
-476.66
-513.09
-529.87
-527.37
-510.14
-484.62
-456.43
-428.59
-401.49
-374.32
-346.78
-319.87
-295.51
-275.12
-258.53
-243.67
-227.38
-206.84
-180.77
-149.88
-116.47
-83.3
-52.33
-24.03
2.72
30.13
60.37
95.18
135.2
179.56
225.59
268.99
304.66
328.28
338.02
335.4
325.37
314.76
310.18
316.13
334.04
362.43
397.74
435.85
472.19
503.29
526.86
541.77
547.88
545.53
535.24
517.68
494.66
467.09
436.93
405.89
374.71
342.93
309.09
271.52
229.12
183.5
134.6
84.95
37.61
-4.78
-40.66
-70.18
-95.17
-118.43
-140.52
-166.17
-197.06
-234.16
-277.42
-324.91
-372.02
-411.46
-435.04
-433.32
-407.48
-360.95
-300.96
-235.11
-168
-100.13
-29.6
24.73
82.08
130.74
160.65
164.38
140.27
92.65
29.06
-43.19
-119.01
-191.96
-261.09
-319.99
-360.42
-375.25
-361.78
-323.23
-267.37
-203.25
-135.92
-72.68
-17.09
27.23
55.98
65.53
54.97
27.38
-10.61
-49.54
-84.04
-109.81
-125.18
-130.24
-125.58
-111.9
-90.17
-62.07
-29.46
3.84
34.93
61.62
82.5
96.67
103.44
102.24
93.13
77.62
58.12
38.41
22.49
13.6
13.48
22.02
37.46
57.02
77.75
97.61
116.09
134.24
153.84
176.03
200.14
223.42
242.01
252.57
253.63
245.86
231.36
212.4
190.74
167.51
143.76
120.99
100.91
84.77
72.79
63.85
55.72
45.64
30.88
9.37
-19.77
-55.59
-95.08
-133.54
-165.77
-187.65
-197.53
-196.57
-187.95
-175.36
-161.64
-148.09
-134.73
-121.19
-107.47
-94.13
-82.12
-72.13
-64.29
-58.14
-52.96
-48.26
-44.1
-40.98
-39.4
-39.36
-40.02
-39.88
-37.37
-31.54
-22.65
-12.12
-2.04
5.59
9.54
9.61
6.5
1.51
-3.96
-8.76
-12.14
-13.85
-13.99
-12.93
-10.97
-8.17
-4.28
1.01
7.84
15.81
23.91
30.83
35.35
36.71
34.8
29.88
22.35
12.58
1.02
-11.56
-23.88
-34.31
-41.35
-44.3
-43.56
-40.59
-37.23
-34.95
-34.13
-34.14
-33.75
-31.95
-28.64
-24.66
-21.51
-20.63
-22.68
-27.37
-33.45
-39.24
-43.16
-44.14
-42.01
-37.41
-31.64
-26.17
-22.15
-20.06
-19.62
-20.01
-20.3
-19.91
-18.64
-16.52
-13.41
-8.87
-2.32
6.44
16.85
27.57
36.99
44.02
48.51
51.21
53.14
54.84
56.07
56.07
54.22
50.65
46.11
41.51
37.2
32.74
27.3
20.33
12.15
3.87
-3.24
-8.41
-11.77
-14.06
-16.09
-18.11
-19.83
-20.64
-20.22
-18.79
-17.11
-16.04
-16.13
-17.41
-19.39
-21.37
-22.77
-23.33
-23.12
-22.27
-20.84
-18.76
-16
-12.87
-10.13
-8.76
-9.51
-12.37
-16.38
-19.89
-21.24
-19.62
-15.57
-10.81
-7.65
-7.96
-12.3
-19.68
-27.79
-33.84
-35.44
-31.72
-23.97
-15.61
-11.29
-15.25
-29.66
-53.58
-82.86
-111.09
-131.27
-137.65
-127.31
-101.24
-64.27
-23.76
12.58
39.35
55.27
63.24
68.57
76.3
88.89
105.69
124.41
143.35
162.83
184.55
209.68
236.54
260.2
274.12
273.16
256.48
228.24
195.79
166.22
142.97
124.13
103.52
73.61
29.32
-29.64
-98.42
-169
-233.1
-284.77
-321.41
-343.22
-351.86
-349.21
-337.03
-317.43
-293.52
-269.41
-249.38
-236.4
-231.04
-231.4
-233.91
-234.91
-232.07
-224.86
-214.26
-201.79
-188.44
-174.08
-157.81
-138.59
-116.07
-90.67
-62.93
-32.39
2.95
45.9
98.14
158.02
219.6
273.8
311.55
327.38
321.41
298.88
267.41
233.71
201.48
171.44
142.88
115.66
91.32
72.42
61.19
58.14
61.48
67.78
73.31
75.22
72.32
65.09
54.97
43.58
32.14
21.29
11.3
2.61
-3.81
-6.5
-4.06
4.18
17.63
34.43
51.94
67.44
78.93
85.51
87.48
85.94
82.26
77.42
71.61
64.18
54.05
40.47
23.7
5.34
-12.07
-26
-34.91
-38.92
-39.59
-39.18
-39.45
-40.98
-42.96
-43.73
-41.64
-35.84
-26.65
-15.37
-3.77
6.71
15.31
21.95
26.95
30.55
32.71
33.11
31.48
27.89
23.07
18.35
15.14
14.38
15.92
18.32
19.18
16.04
7.48
-6.21
-22.88
-39.22
-51.88
-58.65
-59.08
-54.47
-47.15
-39.56
-33.44
-29.27
-26.35
-23.18
-18.18
-10.44
-0.02
12.01
24.16
34.91
43.09
47.88
48.9
46.31
40.99
34.57
28.99
25.64
24.65
24.68
23.6
19.66
12.5
3.45
-5.26
-11.72
-15.31
-16.77
-17.57
-18.97
-21.26
-23.79
-25.37
-24.85
-21.62
-15.97
-8.86
-1.83
3.49
5.74
4.36
-0.31
-7.02
-13.85
-18.84
-20.4
-17.72
-11.01
-1.43
9
17.84
22.93
23
18.3
10.5
2.07
-4.84
-9.36
-12.2
-15.09
-19.63
-26.3
-34.03
-40.8
-44.63
-44.64
-41.34
-36.24
-30.93
-26.28
-22.17
-17.74
-11.87
-3.83
6.4
18.23
30.46
41.61
50.17
54.85
54.92
50.38
42.04
31.42
20.49
11.27
5.4
3.65
5.63
9.77
13.74
15.24
12.89
6.86
-1.23
-8.98
-14.31
-16.48
-16.34
-15.87
-17.15
-21.38
-28.49
-37.39
-46.65
-55.05
-61.79
-66.33
-68.11
-66.5
-61.07
-51.97
-40.33
-28.15
-17.67
-10.63
-7.55
-7.42
-8.08
-6.99
-2.01
7.66
21
35.24
46.43
50.69
45.74
32
12.84
-6.52
-21.01
-27.81
-27.46
-23.41
-20.14
-20.79
-25.67
-32.13
-36.21
-34.82
-27.3
-15.71
-3.62
5.76
11.1
13.4
15.2
19.01
25.96
35.37
45.24
53.41
58.65
61
61.18
59.65
55.96
48.98
37.82
22.94
6.59
-7.94
-17.7
-21.5
-20.34
-16.78
-13.61
-12.57
-13.9
-16.72
-19.95
-22.97
-25.88
-29.07
-32.6
-35.73
-37
-34.8
-28.09
-17.15
-3.68
9.72
20.42
26.75
28.44
26.52
22.4
17.01
10.15
0.77
-11.97
-27.59
-43.66
-56.37
-62.07
-59
-48.33
-33.79
-20.01
-10.41
-5.81
-4.49
-3.56
-0.77
4.16
9.55
12.84
12.11
7.14
-0.52
-8.27
-13.65
-15.38
-13.69
-9.89
-5.54
-1.52
2.13
5.73
9.06
10.89
9.38
3.36
-6.51
-17.41
-25.46
-27.56
-22.96
-13.55
-2.63
6.94
14.17
20
26.16
33.73
42.31
50.23
55.58
57.03
54.31
47.87
38.51
26.98
13.97
0.26
-13.2
-25.34
-35.12
-41.72
-44.69
-44.11
-40.73
-36.14
-32.51
-32.03
-36.13
-44.78
-56.46
-68.76
-79.54
-87.85
-94.19
-100.01
-106.62
-114.3
-122.18
-128.79
-133.04
-134.85
-135.09
-134.94
-135.24
-136.14
-137.24
-137.95
-137.61
-135.43
-130.21
-120.5
-104.97
-83.03
-55.28
-23.24
11.34
47.07
82.9
117.52
148.57
172.62
186.25
187.63
177.95
161.53
144.62
133.27
131.26
139.15
154.73
174.3
194.16
211.55
224.85
233.29
236.71
235.33
229.63
220.14
207.09
190.06
168.2
140.93
108.87
74.33
40.78
11.53
-11.65
-29.04
-42.29
-52.92
-61.27
-66.49
-67.53
-64.48
-59.12
-54.26
-52.49
-54.89
-60.77
-68.39
-76.11
-83.2
-90
-97.35
-105.71
-114.28
-120.62
-120.85
-110.94
-88.35
-53.64
-11.06
32.4
69.44
94.94
107.76
110.56
107.72
102.78
96.62
87.71
74.11
55.85
36.12
20.46
14.26
20.01
36.07
57.34
77.56
91.78
97.79
95.9
87.71
74.89
58.62
39.81
19.66
-0.15
-17.66
-31.28
-40.12
-44.1
-43.66
-39.35
-31.57
-20.65
-7.1
8.09
23.26
36.32
45.15
48.25
45.23
36.93
25.19
12.33
0.45
-9.09
-15.83
-20.19
-23.1
-25.6
-28.33
-31.2
-33.33
-33.3
-30.06
-23.87
-16.85
-12.76
-15.88
-29.42
-53.92
-86.47
-121.05
-149.9
-165.65
-163.4
-142.32
-105.98
-61.55
-17.8
17.26
38.56
45.28
40.85
31.6
24.3
23.5
29.42
37.76
41.48
34.23
13.82
-16.16
-47.51
-71.02
-80.41
-74.64
-57.41
-34.52
-10.84
11.09
30.42
46.13
55.83
56.1
44.37
20.89
-10.45
-43.38
-71.64
-91.47
-102.59
-107.54
-109.77
-111.63
-113.27
-113.08
-109.05
-100.31
-87.73
-73.38
-59.25
-46.17
-33.66
-20.66
-6.66
7.59
20.3
29.49
33.98
33.88
30.1
23.6
14.9
4.2
-8.01
-20.4
-30.9
-37.27
-37.98
-32.69
-22.23
-8.27
7.2
22.22
35.07
44.16
48.21
46.45
38.91
26.69
11.8
-3.28
-16.24
-25.46
-30.19
-30.43
-26.57
-19.07
-8.49
4.37
18.14
30.79
40.04
44.24
43.15
38.28
32.41
28.57
28.96
34.38
44.41
57.93
73.5
89.39
103.4
112.88
115.31
109.21
94.89
74.36
50.33
24.95
-0.79
-26.38
-50.4
-69.41
-78.22
-72.19
-50.08
-16.27
19.41
44.52
48.48
26.65
-17.74
-74.5
-130
-171.52
-190.97
-186.65
-162.8
-127.36
-89.05
-54.73
-27.67
-7.04
11.46
33.76
64.73
105.77
153.55
200.65
237.94
257.65
255.69
232.44
191.93
140.26
84.03
29.43
-18.3
-55.12
-78.77
-89.22
-88.82
-81.56
-72.01
-63.95
-59.62
-59.45
-62.42
-66.71
-70.33
-71.92
-71.11
-68.65
-65.9
-64.06
-63.3
-62.43
-59.38
-52
-39.27
-21.85
-2.14
16.54
31.02
39.26
40.82
36.85
29.62
21.96
16.56
15.19
18.22
24.22
30.31
32.98
29.43
18.73
2.36
-16.09
-32.24
-42.34
-44.61
-39.66
-30.11
-19.45
-10.69
-5.32
-3.07
-2.16
-0.55
3.27
9.56
17.49
25.59
32.32
36.4
37.09
34.36
29.06
22.87
17.79
15.3
15.48
16.77
16.51
12.32
3.38
-8.97
-21.77
-31.79
-36.95
-37.03
-33.29
-27.58
-21.27
-14.97
-8.74
-2.63
3.06
7.63
10.43
11.23
10.43
9.03
8.29
9.45
13.36
20.3
29.81
40.78
51.67
60.95
67.55
71.11
71.92
70.45
67.07
62.09
56.01
49.74
44.54
41.51
41.02
42.65
45.48
48.88
52.98
58.43
65.59
73.52
79.65
80.47
73.18
57.3
35.37
12.19
-7.1
-19.04
-23.23
-22.04
-19.19
-17.93
-19.88
-24.96
-32.21
-40.69
-49.82
-59.1
-67.64
-74.11
-77.12
-75.91
-70.53
-61.78
-50.71
-38.4
-26.09
-15.41
-8.44
-7.18
-12.8
-24.95
-41.68
-59.99
-76.6
-88.75
-94.82
-94.61
-89.33
-81.16
-72.53
-65.33
-60.27
-57.03
-54.7
-52.56
-50.43
-48.55
-47.09
-45.79
-43.92
-40.69
-35.65
-29.05
-21.75
-15.04
-10.26
-8.37
-9.64
-13.4
-18.14
-22.04
-23.55
-21.82
-16.63
-8.1
3.5
17.43
32.09
44.76
52.31
52.51
45.31
33.26
20.46
10.73
5.84
4.98
5.66
5.45
3.34
0.03
-2.94
-4.42
-4.32
-3.46
-2.68
-1.97
-0.33
3.7
11.13
21.76
34.1
45.94
55.27
61.05
63.49
63.82
63.74
64.82
68.11
73.91
81.68
90.2
97.93
103.55
106.52
107.38
107.56
108.76
112.24
118.25
125.94
133.61
139.36
141.6
139.68
134.29
127.55
122.48
122.07
127.77
138.57
150.93
160.03
161.76
154.38
139.07
118.92
97.12
75.39
53.47
29.81
2.99
-27.17
-59.51
-92.16
-123.74
-154.12
-184.53
-216.74
-251.99
-290.38
-331.12
-373.23
-416.07
-459
-500.41
-536.79
-562.84
-573.03
-563.81
-535.49
-492.42
-441.45
-389.5
-341.45
-299.54
-264.05
-234.49
-210.44
-191.52
-176.94
-165.23
-154.59
-143.62
-131.78
-119.54
-107.79
-97.05
-86.82
-75.58
-61.27
-42.17
-17.56
12.06
45.27
80.38
116.06
151.7
187.38
223.85
262.43
304.89
352.66
405.48
459.97
509.24
544.13
556
540.11
497.45
434.24
359.05
279.27
199.01
119.31
40.59
-34.81
-101.61
-152.89
-182.8
-189.04
-173.39
-140.28
-94.65
-40.71
17.65
75.37
125.05
157.81
166.12
147.18
105.02
49.57
-6.82
-53.78
-85.95
-103.49
-109.93
-109.22
-103.52
-92.74
-75.86
-52.6
-24.7
4.14
29.36
47.16
55.83
56.16
50.98
43.99
38.5
36.56
38.72
44.44
52.81
63.07
74.71
87.26
99.96
111.71
121.33
128.01
131.6
132.69
132.15
130.64
128.24
124.4
118.34
109.53
98.09
84.88
71.25
58.67
48.18
40.15
34.09
28.87
23.12
15.84
6.84
-3.03
-12.14
-18.66
-21.34
-20.03
-15.68
-9.98
-4.59
-0.52
2.22
4.45
7.38
11.96
18.53
26.78
35.99
45.34
54.12
61.77
67.92
72.43
75.51
77.68
79.56
81.62
83.82
85.74
86.77
86.62
85.59
84.56
84.78
87.31
92.41
98.91
104.06
104.13
95.79
77.92
52.71
25.36
1.94
-13.51
-20.98
-24.61
-30.61
-44.31
-68.06
-101.38
-142.73
-191.31
-247.4
-310.51
-376.97
-438.9
-485.73
-507.68
-499.89
-464.49
-410.06
-348.41
-290.37
-242.51
-205.89
-177.07
-150.54
-121.3
-86.45
-45.25
1.85
54.33
111.83
173.2
235.26
292
335.77
359.86
361.31
342.28
308.98
268.78
227.28
186.97
147.89
109.64
73.12
40.73
15.25
-1.84
-11.25
-15.53
-17.68
-19.8
-22.46
-24.93
-26.3
-26.28
-25.64
-25.74
-27.71
-31.85
-37.5
-43.45
-48.51
-52.12
-54.39
-55.69
-56.05
-54.86
-50.98
-43.36
-31.75
-17.03
-1.19
13.4
24.69
31.6
34.1
33.01
29.47
24.56
19.16
13.91
9.38
6.17
4.83
5.72
8.71
13.1
17.56
20.46
20.36
16.56
9.4
0.14
-9.33
-17.22
-22.15
-23.54
-21.54
-16.81
-10.44
-3.69
2.08
5.67
6.23
3.54
-2.01
-9.53
-17.95
-26.4
-34.46
-42.26
-50.32
-59.17
-68.78
-78.29
-85.85
-89.17
-86.36
-76.75
-61.35
-42.58
-23.44
-6.54
6.5
15.12
19.53
20.24
17.91
13.47
8.33
4.23
2.9
5.35
11.38
19.5
27.48
33.25
35.69
34.94
32.29
29.36
27.44
27.04
27.88
29.25
30.46
31.07
30.75
29.06
25.47
19.65
11.94
3.6
-3.53
-7.88
-9
-7.88
-6.42
-6.41
-8.68
-12.77
-17.48
-21.84
-25.76
-29.99
-35.35
-41.76
-47.79
-50.95
-48.75
-40
-25.4
-7.55
9.96
23.84
32.16
34.69
32.62
27.74
21.69
15.57
10
5.54
2.7
2.07
3.86
7.78
13.07
18.9
24.65
30.08
35.06
39.23
42.01
42.87
41.85
39.72
37.68
36.76
37.17
38.23
38.72
37.59
34.43
29.55
23.7
17.67
12.04
7.15
3.02
-0.74
-4.91
-10.33
-17.25
-24.64
-30.4
-32.23
-29.22
-22.9
-17.07
-16.16
-22.94
-36.99
-54.61
-70.61
-80.57
-82.61
-77.62
-68.25
-57.32
-46.81
-37.73
-30.53
-25.66
-23.52
-24.17
-27
-30.74
-34.02
-35.9
-36.15
-35.04
-32.85
-29.45
-24.29
-16.84
-7.17
3.7
13.86
21.12
23.86
21.71
15.92
8.96
3.74
2.49
6.02
13.34
22.16
29.81
34.18
34.45
31.18
25.84
20.08
15.04
11.06
7.8
4.84
2.09
0.06
-0.28
1.94
6.92
14.12
22.32
30.07
35.9
38.52
36.84
30.28
19.11
4.79
-10.27
-23.41
-32.71
-37.65
-39.01
-38.17
-36.14
-33.09
-28.46
-21.64
-12.65
-2.41
7.47
15.38
20.32
22.23
22.06
21.49
22.21
25.14
30.17
36.1
41.35
44.8
46.41
46.97
47.29
47.24
45.45
39.98
29.71
15.38
-0.31
-13.8
-22.32
-25.28
-24.29
-22.15
-21.12
-21.79
-23.01
-22.88
-20.02
-14.55
-8.01
-2.62
-0.19
-1.39
-5.65
-11.51
-17.27
-21.57
-23.65
-23.39
-21.11
-17.41
-13.07
-8.91
-5.65
-3.57
-2.37
-1.1
1.5
6.36
13.59
22.09
29.87
34.73
35.12
30.81
22.97
13.66
4.99
-1.69
-6.19
-9.21
-11.6
-13.73
-15.12
-14.55
-10.86
-3.64
6.55
18.36
30.09
39.88
45.77
45.71
37.95
21.91
-1.02
-27.22
-51.72
-69.82
-78.76
-78.47
-71.22
-60.25
-48.45
-37.49
-27.91
-19.67
-12.74
-7.31
-3.64
-1.83
-1.79
-3.2
-5.61
-8.46
-11.22
-13.25
-13.85
-12.47
-8.78
-2.72
5.39
14.76
23.98
31.08
33.98
31.27
23.02
11.12
-1.27
-10.94
-16.19
-17.55
-17.37
-18.25
-21.43
-25.91
-29.05
-28.25
-22.71
-14.23
-6.46
-3.13
-6.25
-15.07
-26.42
-36.01
-40.02
-36.27
-24.51
-6.28
15.55
37.15
54.25
62.79
59.91
44.86
19.51
-11.79
-43.16
-68.6
-83.44
-85.44
-75.39
-56.8
-35.1
-16.21
-4.86
-3.26
-10.5
-23.18
-37.02
-48.78
-57.56
-64.76
-73.08
-84.68
-99.8
-116.3
-130.16
-136.65
-131.56
-112.12
-77.88
-31.47
20.8
69.59
104.82
119.32
112.2
90.03
64.6
48.18
48.4
65.77
94.69
127.17
156.88
181.25
200.81
216.9
229.61
237.33
237.96
230.65
216.65
198.96
180.87
164.57
150.51
137.68
124.77
111.4
98.67
88.92
84.74
87.74
97.71
112.68
129.6
145.49
158.35
167.5
173.51
177.74
181.72
186.66
193.03
200.29
206.88
210.71
209.83
203.23
191.28
175.52
158.04
140.61
124.12
108.66
93.98
79.95
66.73
54.36
42.37
29.49
13.99
-5.62
-29.98
-58.64
-90.54
-124.75
-161.15
-200.21
-242.17
-285.75
-327.42
-361.54
-381.76
-383.15
-364.2
-327.54
-279.21
-226.73
-176.66
-132.91
-96.26
-65.28
-38.11
-14.08
5.46
17.77
20.16
11.31
-8.28
-36.71
-71.43
-109.97
-149.67
-187.3
-218.92
-240.7
-250.24
-248
-237.41
-223.45
-210.15
-198.48
-186
-168.31
-141.72
-105.56
-62.91
-19.58
18.15
45.57
60.73
64.22
58.32
46.05
30.58
15.15
2.54
-5.5
-9
-9.86
-11.18
-15.87
-25.19
-38.34
-52.98
-66.55
-77.72
-86.86
-95.54
-105.45
-117.31
-130.5
-143.34
-153.69
-159.91
-161.39
-158.64
-153.19
-147.04
-142.01
-139.12
-138.24
-137.92
-135.79
-129.3
-116.43
-96.48
-70.26
-39.81
-7.64
24.08
54.16
82.22
108.23
132.09
153.4
171.87
187.74
201.72
214.49
225.98
234.8
238.62
235
222.43
200.63
170.08
131.4
85.57
34.83
-16.06
-59.71
-87.77
-94.18
-78.17
-45.17
-5.06
31.66
57.44
69.29
68.14
56.54
36.81
10.56
-20.52
-53.63
-84.73
-109.56
-125.12
-130.78
-128.16
-120.26
-110.07
-99.61
-89.65
-79.98
-69.98
-58.89
-46
-30.62
-12.26
9.17
33.05
57.86
81.29
100.66
113.58
118.55
115.54
106.17
93.5
81.4
73.34
71.32
74.87
81.15
85.81
84.69
75.42
58.48
36.9
14.91
-3.51
-15.9
-21.65
-21.8
-18.26
-13.11
-8.1
-4.18
-1.49
0.64
3.36
8.03
15.82
27.22
41.28
55.25
64.92
65.89
55.51
34.47
7.08
-20.04
-40.45
-50.33
-49.43
-40.43
-27.11
-12.59
1.39
14.2
25.49
34.54
40.29
41.8
38.87
32.17
23.42
14.8
8.28
4.81
3.79
3.31
1.2
-3.71
-10.74
-17.51
-21.21
-20.15
-14.82
-7.69
-1.96
0.07
-1.83
-5.91
-9.3
-9.5
-5.56
1.57
9.43
15.12
16.63
13.67
7.9
2.18
-0.64
1.05
7.02
15.54
24.24
31.12
35.13
36.19
34.72
31.16
25.77
18.66
10.19
1.08
-7.55
-14.51
-18.92
-20.58
-20.12
-18.98
-18.88
-21.31
-26.91
-35.07
-44.11
-51.71
-55.81
-55.36
-50.59
-42.84
-34.08
-26.55
-22.4
-23.24
-29.53
-39.88
-50.83
-57.65
-56.07
-44.2
-23.68
0.83
23.64
40.33
49.33
51.96
50.99
49
47.31
46.1
45.24
45.02
46.2
49.5
54.76
60.69
65.04
65.47
60.62
50.67
37.43
23.57
11.6
2.98
-2.39
-5.8
-8.93
-12.97
-18.07
-23.42
-27.85
-30.54
-31.5
-31.63
-32.2
-34.28
-38.11
-43.02
-47.58
-50.33
-50.46
-48.16
-44.59
-41.28
-39.33
-38.81
-38.67
-37.23
-33.15
-26.09
-16.92
-7.31
0.85
5.83
6.07
0.47
-11.03
-26.44
-41.31
-49.56
-45.72
-27.63
1.91
35.84
65.62
84.82
91.55
88.44
80.59
72.73
67.39
64.7
63.52
62.68
61.68
60.41
58.59
55.53
50.34
42.48
32.3
21.1
10.83
3.29
-0.45
-0.47
2.02
5.25
7.46
7.6
5.54
2
-1.91
-5.22
-7.47
-8.85
-9.95
-11.37
-13.44
-16.04
-18.62
-20.46
-20.92
-19.66
-16.74
-12.61
-7.97
-3.64
-0.38
1.25
1.03
-0.86
-3.86
-7.11
-9.69
-10.91
-10.42
-8.3
-4.92
-0.74
3.74
8.17
12.26
15.74
18.33
19.77
19.94
18.88
16.87
14.32
11.73
9.47
7.73
6.45
5.43
4.43
3.26
1.87
0.32
-1.37
-3.19
-5.16
-7.24
-9.33
-11.34
-13.27
-15.26
-17.54
-20.23
-23.17
-25.91
-27.84
-28.47
-27.71
-25.86
-23.46
-21.01
-18.69
-16.38
-13.79
-10.7
-7.17
-3.52
-0.18
2.47
4.22
5.07
5.15
4.64
3.75
2.71
1.78
1.19
1.09
1.49
2.23
3.08
3.83
4.37
4.76
5.1
5.45
5.71
5.63
5.05
4.01
2.97
2.66
3.73
6.47
10.6
15.32
19.65
22.84
24.61
25.17
25.13
25.22
26.1
28.18
31.53
35.71
39.81
42.45
42.14
37.81
29.3
17.75
5.27
-5.78
-13.78
-18.49
-21.07
-23.34
-26.65
-31.25
-36.09
-39.6
-40.52
-38.52
-34.24
-28.92
-24.14
-21.87
-24.33
-33.37
-49.14
-68.93
-87.03
-96.48
-91.94
-72.44
-42.16
-8.75
20.02
39.54
49.67
53.74
55.98
59.12
63.46
67.42
69.15
67.8
63.84
58.5
52.82
46.83
39.66
30.1
17.51
2.66
-12.36
-24.88
-32.74
-35.31
-33.77
-30.56
-28.1
-27.77
-29.3
-31.09
-31.21
-28.39
-22.62
-14.93
-6.69
1.05
7.61
12.17
13.45
10.01
1.61
-9.69
-19.28
-21.61
-12.7
7.5
34.75
62.31
83.92
96.38
100.14
98.04
93.17
87.29
80.72
73.19
64.98
57.24
51.44
48.39
47.41
46.34
42.33
33.03
17.8
-1.84
-22.74
-41.26
-54.7
-62.16
-64.57
-63.93
-62.16
-60.39
-58.68
-56.57
-53.64
-49.95
-46.07
-42.7
-40.22
-38.52
-37.03
-35.09
-32.37
-29.03
-25.57
-22.56
-20.28
-18.61
-17.27
-16.04
-15.05
-14.57
-14.77
-15.42
-15.94
-15.69
-14.43
-12.52
-10.88
-10.49
-11.92
-15.05
-18.98
-22.47
-24.38
-24.05
-21.54
-17.54
-13.14
-9.42
-7.12
-6.37
-6.72
-7.33
-7.38
-6.38
-4.49
-2.33
-0.74
-0.34
-1.25
-2.95
-4.58
-5.26
-4.32
-1.5
3.12
9.01
15.09
19.65
20.75
16.98
8.35
-3.09
-13.68
-19.43
-17.67
-8.23
6.57
23.11
38.04
49.58
57.67
63.2
67.05
69.4
69.81
67.78
63.26
56.83
49.35
41.6
33.91
26.31
18.87
12
6.48
3.15
2.68
5.13
9.73
14.79
17.9
16.66
9.62
-2.72
-17.68
-31.1
-38.87
-38.59
-30.52
-17.39
-3.05
9.21
17.75
22.8
25.74
28.16
31.1
34.84
38.99
42.86
45.62
46.67
45.56
41.91
35.34
25.63
13.05
-1.02
-13.81
-21.58
-21.04
-11.18
5.56
23.58
36.25
38.71
30.2
14.35
-2.62
-14.57
-17.92
-12.3
0.33
17.24
36.04
54.91
72.09
85.66
93.89
96.18
93.78
89.58
86.89
87.89
92.55
98.67
102.91
102.35
95.47
82.48
64.91
45.02
25.24
7.87
-5.01
-12.02
-12.86
-8.64
-1.82
4.41
6.95
3.81
-5.39
-19.34
-35.6
-51.31
-63.93
-71.93
-74.93
-73.7
-69.68
-64.54
-59.68
-55.95
-53.57
-52.16
-51.04
-49.44
-46.77
-42.81
-37.79
-32.15
-26.33
-20.46
-14.33
-7.6
-0.01
8.26
16.65
24.26
30.23
33.86
34.81
33.09
29.04
23.38
17.03
10.98
5.97
2.2
-0.74
-3.78
-7.88
-13.55
-20.48
-27.52
-33.06
-35.72
-34.9
-31
-25.18
-18.84
-13.03
-8.13
-3.9
0.24
4.75
9.73
14.87
19.62
23.46
26.31
28.65
31.48
36.01
43.14
53.03
64.92
77.35
88.58
97.24
102.56
104.41
103.01
98.67
91.57
81.75
69.03
53.02
33.24
9.1
-19.64
-52.51
-88.11
-123.9
-156.51
-182.07
-196.83
-197.72
-182.94
-152.28
-107.54
-52.58
6.66
62.76
107.98
136.1
144.09
132.97
107.48
74.05
38.26
2.77
-33.28
-73.24
-121.08
-178.96
-245.59
-315.72
-381.01
-431.96
-460.4
-462.29
-439.1
-397.65
-347.7
-298.36
-255.11
-218.33
-184.41
-148.22
-105.84
-56.51
-3.28
47.65
88.84
113.94
120.04
108.57
84.56
53.66
19.58
-17.25
-58.41
-104.32
-151.5
-192.14
-216.91
-219.05
-197.44
-156.44
-102.58
-40.52
28.87
106.8
192.51
279.5
355
403.85
415.06
387.77
333.28
271.87
225.89
212.13
236.51
293.13
367.41
441.4
499.15
530.28
531.23
504.56
457.09
397.79
335.51
277.31
227.45
186.8
153.24
122.5
89.49
49.39
-0.75
-60.55
-125.1
-185.26
-230.16
-250.97
-245.24
-219.39
-187.28
-165.55
-166.83
-194.15
-239.28
-286.19
-317.77
-322.72
-299.31
-254.26
-197.81
-137.78
-76.2
-10.22
63.59
144.29
224.11
290.39
330.99
340.08
320.87
283.77
241.25
202.26
169.49
139.99
108.68
71.98
29.21
-18.12
-68.54
-121.77
-177.73
-234.18
-284.96
-321.09
-334.13
-321.27
-287.93
-246.79
-213.12
-198.96
-209.41
-242.3
-290.67
-346.03
-400.59
-447.92
-482.89
-501.73
-502.79
-487.15
-458.42
-421.39
-380.36
-338.22
-296.17
-254.44
-212.79
-170.67
-127.23
-81.23
-31.67
21.42
76.13
128.77
174.68
209.54
230.91
238.9
236.12
226.49
213.87
200.95
189.04
178.47
169.42
162.34
157.76
155.75
155.46
155.19
153.13
148.1
140.05
130.03
119.62
110.21
102.45
96.17
90.58
84.82
78.34
71.12
63.58
56.34
49.96
44.69
40.5
37.09
34.14
31.37
28.64
25.94
23.3
20.77
18.41
16.35
14.71
13.58
12.94
12.71
12.71
12.83
12.99
13.13
13.19
13.11
12.88
12.52
12.11
11.67
11.07
10.02
8.16
5.33
1.74
-1.98
-5.04
-6.79
-7.09
-6.33
-5.36
-5.06
-6.03
-8.3
-11.38
-14.39
-16.43
-16.88
-15.68
-13.3
-10.62
-8.59
-7.92
-8.82
-10.94
-13.5
-15.52
-16.2
-15.15
-12.55
-9.09
-5.77
-3.55
-2.92
-3.69
-5
-5.6
-4.31
-0.6
5.26
12.27
19.08
24.52
27.89
29.12
28.58
26.85
24.48
21.92
19.41
17.02
14.63
11.98
8.8
4.88
0.28
-4.77
-9.89
-14.79
-19.27
-23.29
-26.77
-29.54
-31.44
-32.43
-32.82
-33.16
-34.09
-35.93
-38.48
-40.98
-42.4
-41.97
-39.51
-35.69
-31.84
-29.43
-29.48
-32.07
-36.05
-39.29
-39.32
-34.09
-22.7
-5.43
16.54
41.92
69.91
100.46
133.95
170.53
209.33
247.89
282.11
306.75
316.74
308.67
282.18
240.33
188.92
134.49
81.98
33.19
-13.68
-62.89
-119.01
-184.48
-257.84
-333.13
-400.91
-450.52
-473.22
-465.23
-429.74
-377.17
-322.84
-282.52
-267.28
-279.67
-313.06
-354.6
-390.4
-410.53
-411.66
-396.36
-369.92
-337.07
-300.17
-259.71
-216.16
-171.44
-128.76
-90.99
-58.88
-30.21
-0.78
33.69
75.53
124.16
176.26
226.92
271.18
305.29
327.57
338.7
341.29
338.87
334.62
330.19
325.33
318.39
307.53
291.93
272.4
250.94
229.74
210.04
191.89
174.51
157.26
140.19
124.17
110.32
99.41
91.53
86.31
83.3
82.35
83.4
86.23
90.02
93.38
94.71
92.76
87.05
77.99
66.61
54.14
41.66
29.97
19.57
10.79
3.86
-1.03
-3.78
-4.43
-3.2
-0.46
3.29
7.45
11.37
14.36
15.89
15.79
14.39
12.5
11.21
11.51
13.89
18.29
24.1
30.52
36.74
42.19
46.51
49.48
51.03
51.25
50.44
48.99
47.24
45.16
42.3
37.86
31.01
21.33
9.12
-4.52
-17.99
-29.85
-39.4
-46.95
-53.55
-60.3
-67.63
-74.92
-80.74
-83.56
-82.43
-77.56
-70.29
-62.58
-56.33
-52.76
-52.1
-53.59
-55.84
-57.36
-57.11
-54.87
-51.26
-47.48
-44.75
-43.74
-44.46
-46.31
-48.47
-50.34
-51.72
-52.7
-53.42
-53.89
-54
-53.52
-51.77
-47.31
-37.81
-20.79
4.96
37.94
73.42
104.66
125.55
133.4
130.12
121.23
112.93
109.12
109.9
112.34
112.61
108.24
99.05
86.54
72.59
58.44
44.3
29.89
15.12
0.47
-13.05
-24.38
-32.95
-38.95
-43.41
-47.84
-53.6
-61.12
-69.43
-76.16
-78.33
-73.57
-61.27
-43.08
-22.56
-3.95
9.12
14.64
12.47
3.89
-9.07
-24.23
-39.64
-53.74
-65.32
-73.63
-78.39
-79.82
-78.59
-75.73
-72.51
-70.39
-70.58
-73.48
-78.07
-81.77
-81.19
-73.38
-57.34
-34.66
-9.05
15.31
35.49
50.88
62.9
73.66
84.38
94.59
102.47
106.02
104.27
97.68
87.74
75.95
63.02
48.79
32.75
14.86
-3.91
-21.84
-37.25
-49.28
-58.31
-65.74
-73.17
-81.53
-90.44
-98.26
-102.89
-102.79
-97.87
-89.78
-81.25
-74.98
-72.36
-72.83
-74.07
-73
-67.12
-55.52
-39.23
-20.77
-3
11.93
23.34
31.84
38.61
44.48
49.3
52.11
52.02
49.18
45.11
42.24
42.79
47.72
56.53
67.73
79.73
91.46
102.23
111.27
117.38
119.13
115.72
107.86
97.94
89.43
85.42
87.36
94.41
103.95
112.9
119.01
121.48
120.55
116.51
108.89
96.36
77.67
52.82
23.86
-5.53
-31.29
-50.55
-62.44
-67.76
-67.86
-63.61
-55.27
-43.1
-28.36
-13.62
-2.03
4
3.96
-0.46
-6.27
-10.58
-11.85
-10.29
-7.27
-4.3
-2.17
-0.48
2.09
7.25
16.32
29.61
46.11
63.64
79.43
90.85
96.26
95.19
88.32
76.93
62.34
45.62
27.48
8.44
-11.11
-30.8
-50.34
-69.34
-87.2
-102.92
-115.18
-122.68
-124.56
-120.8
-112.25
-100.42
-87.08
-73.86
-61.98
-52.21
-44.74
-39.17
-34.52
-29.4
-22.51
-13.1
-1.43
11.24
23.09
32.39
38.2
40.58
40.48
39.18
37.73
36.65
35.93
35.26
34.33
33.11
31.73
30.41
29.29
28.29
27.18
25.67
23.59
20.93
17.88
14.83
12.19
10.28
9.32
9.26
9.87
10.81
11.65
11.99
11.48
9.84
6.87
2.48
-3.26
-10.07
-17.42
-24.57
-30.66
-34.86
-36.64
-35.91
-33.12
-29.16
-25.11
-21.97
-20.41
-20.6
-22.27
-24.73
-27.18
-28.9
-29.37
-28.44
-26.26
-23.17
-19.66
-16.2
-13.21
-11.04
-9.89
-9.72
-10.24
-10.97
-11.37
-11.06
-9.93
-8.18
-6.17
-4.25
-2.59
-1.26
-0.19
0.72
1.51
2.17
2.64
2.85
2.71
2.18
1.23
-0.06
-1.48
-2.75
-3.54
-3.68
-3.11
-1.96
-0.46
1.24
3.19
5.71
9.32
14.61
21.8
30.41
39.12
46.06
49.62
49.21
45.82
41.64
39.13
39.81
43.5
48.51
52.58
54.05
52.61
49.17
45.11
41.51
38.78
36.75
34.99
32.9
29.37
22.71
11.01
-6.95
-30.73
-57.61
-83.16
-102.78
-113.38
-114.57
-108.54
-99
-89.63
-82.98
-80
-80.35
-83.01
-86.72
-90.21
-92.3
-91.89
-88.07
-80.43
-69.19
-55.29
-40.29
-25.97
-13.92
-5.07
0.44
3.19
4.14
4.21
4.03
3.9
3.88
4.03
4.57
5.8
7.99
11.22
15.27
19.74
24.17
28.24
31.73
34.43
36.07
36.39
35.35
33.24
30.68
28.5
27.49
28.2
30.81
35.08
40.42
45.99
50.76
53.72
53.98
51.01
44.77
35.68
24.52
12.28
0.05
-11.08
-19.96
-25.6
-27.28
-24.84
-18.82
-10.53
-1.78
5.5
9.83
10.7
8.73
5.38
2.22
0.16
-0.96
-2.15
-4.51
-8.52
-13.62
-18.59
-22.18
-23.76
-23.57
-22.4
-20.99
-19.63
-18.24
-16.6
-14.78
-13.15
-12.04
-11.34
-10.26
-7.64
-2.55
5.03
14
22.55
28.94
32.44
33.78
34.95
38.53
46.61
59.95
77.35
95.65
110.29
116.39
110.07
89.75
56.94
16.17
-26.02
-62.86
-89.34
-103.43
-106.31
-101.32
-92.33
-82.22
-72.25
-62.35
-52.35
-43.06
-36.72
-36.37
-44.37
-60.92
-83.46
-107.31
-127.24
-139.11
-140.91
-132.76
-116.39
-94.01
-68.11
-41.06
-15.4
6.24
21.5
29.05
29.32
24.72
19
16.16
19.23
29.77
47.88
72.87
103.55
138.13
173.68
205.78
228.86
237.44
227.95
200.14
157.46
106
52.63
3.14
-38.66
-70.93
-93.23
-105.83
-109.72
-106.34
-97.97
-87.18
-76.35
-66.98
-59.36
-52.84
-46.36
-39.28
-31.66
-24.25
-17.98
-13.48
-10.87
-9.73
-9.42
-9.37
-9.44
-10.05
-11.96
-15.91
-22.08
-29.64
-36.88
-41.72
-42.48
-38.61
-30.91
-21.33
-12.13
-5.15
-1.24
-0.13
-0.78
-1.82
-1.97
-0.27
3.66
9.42
15.74
20.72
22.47
19.89
13.31
4.31
-5.09
-13.44
-20.61
-27.54
-35.22
-43.58
-51.02
-55.08
-53.73
-46.65
-35.47
-23.04
-12.13
-4.34
0.16
2.14
2.59
2.2
1.27
0.11
-0.75
-0.52
1.56
5.77
11.54
17.41
21.39
21.64
17.33
9.12
-0.93
-10.21
-16.61
-19.54
-19.95
-19.62
-19.91
-20.82
-20.91
-18.21
-11.4
-0.86
11.41
22.54
29.98
32.58
30.87
26.67
22.24
19.43
19.01
20.7
23.53
26.38
28.22
28.2
25.54
19.77
11.1
0.8
-9.03
-16.11
-19.24
-19
-17.58
-17.61
-20.6
-25.94
-31.08
-32.78
-28.79
-18.89
-4.99
9.89
22.84
32.1
37.16
38.58
37.29
34.14
29.72
24.45
18.8
13.37
8.66
4.75
1.03
-3.54
-9.78
-17.55
-25.43
-31.28
-33.23
-30.7
-24.81
-17.75
-11.73
-7.77
-5.36
-2.92
1.13
7.44
15.36
23.28
29.44
32.63
32.56
29.82
25.54
20.93
16.9
13.78
11.32
8.66
4.62
-1.87
-11.21
-22.78
-34.92
-45.44
-52.36
-54.58
-52.03
-45.5
-36.07
-24.74
-12.28
0.65
13.34
25.01
34.96
42.75
48.2
51.28
52.01
50.39
46.58
41
34.36
27.37
20.59
14.21
8.12
2.07
-4.15
-10.62
-17.31
-24.12
-30.89
-37.34
-42.99
-47.2
-49.29
-48.79
-45.64
-40.3
-33.52
-25.96
-17.92
-9.48
-0.97
6.58
11.53
12.34
8.74
2.42
-3.19
-4.04
2.9
18.62
41.94
70.2
100.4
129.86
156.4
178.17
193.45
200.84
199.63
190.15
173.78
152.63
129.07
105.11
81.99
59.87
37.96
14.94
-10.23
-37.47
-65.19
-90.54
-110.36
-122.38
-126.05
-122.68
-114.81
-105.08
-95.35
-86.15
-76.83
-66.16
-53.16
-37.74
-20.9
-4.54
9.19
18.56
22.73
21.9
17.08
9.64
0.91
-7.92
-15.81
-21.84
-25.25
-25.8
-23.97
-20.88
-18
-16.55
-17.07
-19.28
-22.32
-25.24
-27.38
-28.54
-28.99
-29.24
-29.86
-31.3
-33.85
-37.6
-42.53
-48.57
-55.67
-63.88
-73.22
-83.52
-94.19
-104.04
-111.33
-114.13
-110.82
-100.55
-83.46
-60.72
-34.35
-6.82
19.56
43.14
63.28
80.32
95.07
108.25
120.03
129.87
136.87
140.07
138.82
132.68
121.38
105.02
84.37
61.55
39.78
22.43
11.47
5.98
1.75
-7.77
-29.08
-65.76
-116.25
-173.46
-226.68
-265.05
-281.23
-273.71
-246.54
-206.9
-161.78
-115.66
-70.2
-25.79
16.35
53.32
81.38
98.19
104.47
104.06
102.16
102.86
107.34
113.93
119.15
119.85
114.57
103.81
89.47
73.87
58.95
46
35.81
28.87
25.61
26.54
31.99
42.02
56.2
73.55
92.67
112.14
130.85
148.32
164.68
180.16
194.6
207.41
217.96
226.5
234.8
245.83
262.5
285.58
312.44
337.16
352.53
352.77
335.79
303.55
260.62
211.72
159.87
105.99
49.88
-8.34
-67.6
-126.18
-182.76
-236.94
-289.25
-340.38
-390.55
-439
-484.1
-523.67
-555.18
-576.01
-583.88
-577.27
-555.95
-521.19
-475.58
-422.4
-364.87
-305.41
-245.23
-184.59
-123.37
-61.93
-1.62
55.13
105.46
147.12
179.31
202.76
218.73
227.82
229.18
221.06
202.48
175.16
144.42
118.04
103.52
104.96
121.18
145.97
170.63
187.36
192.1
185.36
171.13
154.27
138.31
124.41
111.86
99.66
87.68
77
69.07
64.5
62.29
59.96
54.53
44.01
28.32
9.46
-9.3
-24.63
-34.36
-38.04
-36.83
-32.98
-29.05
-27.35
-29.47
-36.1
-46.81
-59.99
-72.95
-82.25
-84.54
-77.33
-59.69
-32.67
0.86
36.52
69.17
93.89
106.95
106.58
93.28
69.73
40.21
9.58
-18.06
-40.8
-59.55
-77.61
-98.82
-125.14
-154.8
-182.21
-199.96
-201.98
-186.12
-154.94
-113.9
-68.64
-22.78
22.4
66.48
107.79
142.44
165.25
171.95
161.2
135.42
99.73
60
21.1
-13.86
-43.1
-65.38
-79.5
-84.54
-80.53
-69.15
-53.67
-38.17
-26.23
-19.75
-18.58
-20.89
-24.12
-26.13
-25.75
-23.03
-18.98
-14.94
-11.95
-10.51
-10.6
-11.82
-13.74
-16.02
-18.39
-20.65
-22.56
-23.95
-24.71
-24.82
-24.27
-23.04
-21.11
-18.58
-15.78
-13.22
-11.51
-11.09
-11.98
-13.71
-15.51
-16.63
-16.64
-15.58
-13.8
-11.72
-9.64
-7.64
-5.63
-3.52
-1.37
0.65
2.25
3.15
3.19
2.35
0.82
-1.07
-2.95
-4.57
-5.91
-7.23
-8.8
-10.83
-13.3
-16
-18.72
-21.38
-24.13
-27.29
-31.2
-36.13
-42.14
-49.15
-56.81
-64.57
-71.7
-77.47
-81.31
-83
-82.59
-80.13
-75.38
-67.84
-57.24
-44.27
-31.07
-20.86
-16.92
-20.99
-32.29
-47.79
-63.27
-74.92
-80.26
-78.37
-69.71
-55.85
-39.38
-23.71
-12.3
-7.46
-8.99
-13.87
-17.2
-14.48
-3.79
13.14
31.73
46.63
54.14
53.55
47.08
38.39
30.87
26.25
24.22
22.95
20.22
14.46
5.23
-6.88
-20.76
-35.18
-48.88
-60.28
-67.3
-67.47
-58.42
-38.84
-9.17
28.12
68.96
108.68
143.14
169.63
187.35
197.19
201.14
201.39
199.58
196.47
191.89
185.13
175.41
162
144.26
121.34
92.35
56.86
15.78
-28
-69.81
-104.22
-126.72
-135.06
-129.77
-113.72
-90.93
-65.6
-41.36
-21.19
-7.34
-1.29
-3.4
-12.69
-26.88
-42.82
-57.28
-67.72
-72.75
-72.28
-67.28
-59.38
-50.47
-42.19
-35.72
-31.64
-29.94
-30.24
-31.88
-34.18
-36.53
-38.54
-40.03
-41
-41.53
-41.62
-41.22
-40.24
-38.61
-36.3
-33.24
-29.26
-24.16
-17.79
-10.17
-1.56
7.62
16.97
26.28
35.55
44.92
54.41
63.87
72.97
81.39
88.98
95.89
102.45
109
115.7
122.4
128.78
134.5
139.45
143.83
148.1
152.66
157.52
162.25
166.03
168.01
167.75
165.28
161.13
156.07
150.89
146.19
142.28
139.15
136.51
133.82
130.54
126.29
121.06
115.11
108.8
102.24
95.05
86.33
74.9
59.56
39.37
13.95
-16.23
-49.61
-83.51
-114.58
-139.7
-156.97
-166.54
-170.73
-173.41
-178.6
-189.24
-206.2
-228.29
-252.77
-276.32
-295.86
-308.96
-314.11
-310.55
-298.32
-278.25
-251.98
-221.81
-190.37
-160.01
-132.26
-107.6
-85.55
-65.13
-45.46
-26.21
-7.82
8.78
22.6
33.34
41.74
49.57
59.2
72.68
90.99
113.5
138.01
161.11
178.84
187.51
184.63
169.76
144.95
114.61
84.48
60.05
44.95
40
43.15
50.58
58.23
63.17
64.29
62.06
57.83
53.02
48.59
44.92
42.03
39.88
38.71
39.1
41.65
46.44
52.69
58.73
62.65
63.13
60.27
55.58
51.34
49.44
50.39
53.14
55.65
56.07
53.5
48.14
40.59
31.16
19.52
5.06
-12.33
-31.76
-51.24
-68.48
-81.56
-89.73
-93.66
-95.43
-98.29
-106.07
-122.05
-147.56
-180.86
-217.01
-249.07
-270.27
-276.21
-266.09
-242.27
-208.78
-169.61
-127.79
-85.4
-44.26
-6.45
25.68
50.13
65.86
73.1
73.13
67.79
59.04
48.54
37.48
26.7
16.66
7.69
0.11
-5.66
-9.01
-9.17
-5.48
2.42
14.35
29.52
46.51
63.42
78.14
88.72
93.64
92.17
84.58
72.1
56.66
40.44
25.33
12.57
2.66
-4.49
-9.19
-11.7
-12.16
-10.67
-7.44
-2.8
2.85
9.16
15.84
22.57
28.87
34.01
37.2
37.83
35.73
31.36
25.63
19.8
15.06
12.22
11.44
12.22
13.47
13.98
12.87
9.94
5.71
1.18
-2.61
-5.04
-5.95
-5.61
-4.35
-2.41
0.07
3.01
6.23
9.42
12.24
14.4
15.6
15.46
13.44
8.87
1.25
-9.37
-22.06
-35.11
-46.44
-54.43
-58.46
-59.16
-57.97
-56.47
-55.68
-55.79
-56.37
-56.86
-57.1
-57.57
-59.22
-63.09
-69.8
-79.24
-90.44
-101.82
-111.71
-118.78
-122.47
-122.98
-121.06
-117.57
-113.15
-108.19
-103
-97.98
-93.74
-91.03
-90.56
-93.16
-99.92
-112.19
-130.99
-155.87
-183.9
-209.42
-225.31
-225.3
-206.57
-171.12
-125.09
-76.46
-31.96
4.99
34.63
59.59
82.78
105.91
128.89
150.37
168.51
181.64
188.52
188.4
181.1
167.16
148.06
126.12
104.1
84.52
69.12
58.68
53.29
52.62
56.26
63.76
74.58
88.16
104.05
122.06
142.27
164.65
188.59
212.63
234.62
252.4
264.53
270.62
271.1
266.58
257.42
243.77
226.04
205.55
184.32
164.41
146.73
130.48
113.43
93.08
68.1
39.11
8.61
-19.99
-43.56
-60.13
-69.01
-70.54
-65.69
-55.83
-42.74
-28.59
-15.75
-6.25
-1.27
-0.64
-3.01
-6.3
-8.58
-8.74
-6.84
-3.86
-1.12
0.43
0.62
0.09
0
1.56
5.61
12.41
21.59
32.27
43.33
53.62
62.12
68.08
70.91
70.22
65.81
57.73
46.39
32.53
17.06
0.93
-15.06
-30.31
-44.49
-57.59
-69.95
-82.11
-94.54
-107.31
-119.79
-130.72
-138.54
-142.09
-141
-135.94
-128.3
-119.58
-110.99
-103.1
-96.01
-89.55
-83.55
-77.95
-72.85
-68.35
-64.51
-61.2
-58.14
-54.97
-51.38
-47.25
-42.71
-38.12
-33.91
-30.33
-27.38
-24.79
-22.25
-19.75
-17.75
-17.01
-18.41
-22.38
-28.66
-36.22
-43.48
-48.7
-50.49
-48.08
-41.5
-31.48
-19.41
-7.05
3.7
11.24
14.59
13.8
10.01
5.21
1.75
1.57
5.57
13.36
23.44
33.68
41.97
46.69
46.85
42.16
32.9
19.85
4.25
-12.27
-27.8
-40.35
-48.17
-50
-45.39
-34.79
-19.56
-1.75
16.2
31.94
43.55
49.9
50.71
46.67
39.3
30.89
24.02
21.01
23.18
30.32
40.72
51.8
61.1
67.2
70.11
70.92
70.83
70.23
68.31
63.33
53.45
37.54
15.64
-10.98
-40.07
-68.73
-93.7
-111.65
-119.89
-117.01
-103.63
-82.7
-59.04
-38.32
-25.51
-23.63
-32.94
-51.15
-74.27
-97.85
-118.21
-133.15
-142.06
-145.42
-144.26
-139.51
-131.84
-121.66
-109.2
-94.68
-78.27
-60.12
-40.35
-19.27
2.5
23.96
43.72
60.35
72.72
80.47
84.05
84.67
83.73
82.37
81.1
79.71
77.55
73.9
68.34
60.94
52.28
43.22
34.72
27.52
21.93
17.71
14.1
10.07
4.67
-2.53
-11.27
-20.61
-29.36
-36.42
-41.15
-43.4
-43.29
-41.04
-36.78
-30.68
-23.05
-14.51
-5.88
2.08
8.91
14.61
19.62
24.44
29.42
34.51
39.25
42.95
44.94
44.84
42.65
38.79
34.01
29.38
26.1
25.37
28.11
34.59
44.33
56.02
67.9
78.31
86.15
91.16
93.76
94.78
95.07
95.28
95.78
96.51
96.97
96.16
92.72
85.38
73.5
57.47
38.81
19.73
2.48
-11.25
-20.64
-25.67
-26.8
-24.72
-20.37
-14.9
-9.71
-6.2
-5.41
-7.69
-12.6
-19.19
-26.47
-33.8
-41.13
-48.88
-57.47
-66.98
-76.86
-86.03
-93.14
-97.01
-96.95
-92.95
-85.66
-76.21
-65.96
-56.2
-47.9
-41.47
-36.75
-33.08
-29.64
-25.85
-21.6
-17.37
-13.94
-12.04
-12.07
-13.93
-16.97
-20.07
-21.78
-20.65
-15.6
-6.43
5.95
19.49
31.43
38.93
39.8
33.06
19.31
0.8
-18.91
-35.64
-45.64
-46.75
-39.07
-25.07
-8.78
5.72
15.5
19.52
18.58
14.54
9.46
4.9
1.77
0.37
0.67
2.33
4.85
7.52
9.51
10.17
9.21
6.82
3.67
0.68
-1.15
-1
1.63
6.75
13.68
21.06
27.04
29.77
27.97
21.43
11.11
-1.15
-13.24
-23.38
-30.44
-33.95
-33.81
-30.1
-23.01
-13.03
-1.15
11.14
22.11
30.26
34.85
36.04
34.81
32.46
30.03
27.9
25.72
22.74
18.26
12.1
4.69
-3.11
-10.49
-17.04
-22.85
-28.28
-33.55
-38.51
-42.59
-45.13
-45.6
-43.86
-40.06
-34.52
-27.62
-19.78
-11.61
-3.82
2.74
7.38
9.69
9.7
7.81
4.7
1.21
-1.86
-3.86
-4.38
-3.36
-1.03
2.23
5.94
9.65
12.99
15.65
17.45
18.29
18.19
17.28
15.8
14.03
12.29
10.79
9.6
8.61
7.56
6.11
4.04
1.29
-1.94
-5.35
-8.57
-11.26
-13.17
-14.15
-14.13
-13.18
-11.5
-9.37
-7.03
-4.67
-2.32
0.07
2.61
5.35
8.3
11.35
14.28
16.81
18.62
19.49
19.35
18.38
16.99
15.68
14.84
14.64
14.92
15.31
15.41
14.92
13.8
12.24
10.54
8.98
7.7
6.7
5.88
5.15
4.43
3.66
2.77
1.64
0.13
-1.8
-4.12
-6.67
-9.23
-11.57
-13.53
-15.01
-15.95
-16.34
-16.11
-15.24
-13.75
-11.67
-9.13
-6.3
-3.32
-0.3
2.65
5.45
7.98
10.1
11.71
12.77
13.39
13.71
13.86
13.92
13.86
13.66
13.26
12.72
12.09
11.43
10.85
10.42
10.22
10.29
10.59
10.91
11.01
10.64
9.7
8.3
6.69
5.2
4.02
3.28
2.87
2.61
2.24
1.59
0.59
-0.77
-2.4
-4.28
-6.4
-8.76
-11.21
-13.45
-15.07
-15.62
-14.89
-12.93
-10.08
-6.81
-3.53
-0.49
2.28
4.85
7.35
9.86
12.36
14.75
16.86
18.56
19.77
20.51
20.88
20.99
20.94
20.75
20.46
20.09
19.72
19.43
19.23
19.08
18.85
18.42
17.74
16.9
16.03
15.27
14.67
14.16
13.55
12.66
11.39
9.74
7.9
6.06
4.37
2.91
1.61
0.38
-0.89
-2.22
-3.57
-4.85
-6.01
-7.03
-7.93
-8.67
-9.08
-8.9
-7.94
-6.16
-3.72
-0.94
1.92
4.77
7.72
10.96
14.56
18.39
22.15
25.58
28.58
31.29
33.99
36.93
40.17
43.6
47
50.28
53.51
56.93
60.84
65.38
70.42
75.59
80.44
84.65
88.27
91.76
95.84
101.12
107.85
115.73
124.11
132.31
139.91
146.86
153.14
158.29
161.11
159.84
152.74
138.83
118.44
93.06
64.78
35.55
6.61
-21.68
-49.62
-77.97
-108.01
-141.69
-181.48
-229.38
-285.34
-345.74
-403.2
-448.22
-472.29
-471.14
-446.48
-405.32
-357.25
-310.72
-270.51
-237.19
-208.44
-181.37
-154.14
-126.39
-98.4
-70.11
-40.82
-9.71
23.17
56.54
88.14
115.94
139.21
158.74
176.09
192.17
206.4
216.82
221.44
219.58
212.67
203.8
196.25
192.02
190.99
191.18
189.69
183.85
171.85
153.02
127.54
96.3
60.93
24.04
-10.67
-38.91
-56.9
-62.91
-58.66
-49.54
-43.48
-48.37
-69.14
-105.79
-153.08
-202.07
-242.75
-266.62
-268.41
-246.82
-204.55
-147.82
-85.63
-28.12
15.76
41.03
48.53
44.95
40.49
45.04
64.5
98.83
142.73
188.11
227.29
255.33
270.91
275.59
272.45
264.58
254.3
242.88
231
219.15
207.91
197.76
188.57
179.21
167.66
151.54
128.91
98.87
61.72
18.81
-27.52
-73.89
-115.88
-148.47
-167.29
-170.19
-158.38
-136.35
-110.47
-86.76
-69.2
-59.04
-55.37
-56.11
-58.86
-61.23
-60.93
-56.02
-45.64
-30.61
-13.44
2.77
15.98
26.75
38.56
56.18
83.1
118.94
158.61
193.73
215.83
219.64
204.91
176.06
139.75
102.03
66.26
32.62
-1.05
-37.79
-80
-128.27
-180.64
-232.51
-277.4
-308.55
-320.92
-312.86
-286.82
-248.66
-206.22
-167.54
-139.36
-125.85
-127.89
-142.78
-164.63
-185.81
-199.01
-199.51
-186.64
-163.82
-137.3
-113.98
-99.37
-96.07
-103.49
-118.58
-137.15
-155.32
-170.21
-180.12
-183.92
-180.5
-168.61
-147.22
-116.07
-75.83
-27.85
26.12
84.01
142.85
198.26
244.67
276.58
290.54
286.84
269.78
246.26
223.1
204.71
191.87
182.35
172.56
159.45
141.67
119.81
95.96
72.98
53.89
41.26
36.7
40.52
51.51
67.05
83.58
97.3
104.75
103.44
92.1
70.96
41.56
6.39
-31.65
-69.86
-106.13
-138.92
-166.96
-189.2
-204.86
-213.84
-217.17
-216.94
-215.67
-215.2
-215.71
-215.35
-210.84
-198.66
-176.44
-143.81
-102.27
-54.53
-3.51
48.23
98.54
145.33
186.33
219.44
243.32
258.13
265.64
268.35
268.23
265.44
258.27
244.04
220.8
188.64
150.19
109.75
71.94
40.32
16.89
2.11
-4.54
-4.31
0.94
8.66
15.74
19
15.98
5.52
-11.9
-34.37
-58.94
-82.26
-101.34
-114.3
-121.03
-123.06
-122.89
-122.63
-122.83
-121.96
-117.11
-105.59
-86.78
-63.08
-39.37
-21.36
-13.16
-15.53
-25.44
-37.13
-44.16
-41.71
-28
-4.49
25.02
56.06
84.92
109.24
127.81
139.73
143.77
138.42
122.61
96.73
63.35
27.16
-6.26
-32
-47.18
-51.5
-46.79
-35.87
-21.34
-4.72
13.63
33.89
55.97
78.93
100.98
120.19
135.45
147.17
156.99
166.79
177.32
187.32
193.76
192.96
182
159.69
126.55
84.31
35.53
-16.52
-67.59
-112.69
-146.96
-166.96
-171.97
-164.2
-148.15
-128.99
-111.22
-97.8
-90.08
-88.16
-91.15
-97.55
-105.26
-112.03
-115.8
-115.31
-110.34
-101.72
-91.06
-80.33
-71.27
-64.92
-61.19
-58.81
-55.75
-50.06
-40.77
-28.44
-14.88
-2.22
8.27
16.93
25.47
35.98
49.58
65.73
82.2
95.96
104.19
105.16
98.56
85.27
66.99
45.77
23.5
1.43
-20.11
-42.13
-67.04
-98.22
-138.88
-190.19
-249.65
-310.65
-363.9
-400.47
-415.12
-408.42
-386.29
-357.34
-329.13
-305.51
-286.2
-268.32
-248.99
-227.05
-203.42
-179.87
-157.63
-136.44
-114.65
-90.23
-61.58
-28.03
10.19
52.32
97.06
142.08
183.72
217.36
238.95
246.85
243.1
233.12
223.67
220.15
224.21
233.11
240.8
240.37
226.8
198.98
160.42
118.43
82.17
59.82
55.79
69.04
93.12
118.48
135.52
137.46
121.54
88.51
41.68
-13.76
-70.99
-122
-158.89
-176.29
-173.91
-157.53
-136.84
-121.39
-116.08
-118.87
-122.38
-117.76
-99.28
-67.38
-28.37
8.65
35.47
47.35
44.13
29.03
7.72
-13.3
-28.47
-34.25
-29.35
-14.95
5.59
27.61
45.63
55.5
55.62
48.76
39.29
32.31
31.32
35.81
41.2
39.99
25.34
-3.34
-41.25
-80.09
-110.75
-127.02
-128.02
-112.49
-86.74
-60.36
-41.18
-31.54
-28.13
-24.93
-16.61
-1.31
20.17
44.81
69.93
91.84
106.57
110.5
102.52
85.62
66.84
54.8
54.95
67.26
86.09
103.08
111.46
109.56
101.11
92.74
90.31
95.9
108.06
123.69
140.33
157.28
175.53
196.47
220.33
245.44
268.02
283.38
287.43
278.3
256.96
227
193.2
159.9
129.62
102.8
78.69
56.75
37.55
22.52
12.9
8.47
6.99
4.48
-3.24
-19.13
-43.89
-76.06
-112.76
-150.85
-187.47
-220.14
-246.27
-262.85
-266.53
-254.45
-225.4
-180.76
-124.83
-64.07
-5.61
44.45
82.34
107.1
120.12
124.19
122.39
117.4
111.26
105.54
101.41
99.43
99.3
99.74
99.02
95.75
89.74
82.2
75.21
70.89
70.43
73.81
79.95
87.39
94.76
101.21
106.4
110.27
112.69
113.17
110.85
104.78
94.53
80.57
64.4
48.02
33.02
19.8
7.36
-6.2
-22.69
-43.05
-66.93
-92.95
-119.35
-144.72
-168.16
-189.43
-208.64
-226.2
-242.95
-260.52
-281.6
-309.48
-346.55
-392.29
-442.08
-487.39
-518.37
-527.16
-510.69
-471.35
-415.5
-351.05
-285.57
-225.4
-175.47
-139.1
-117.35
-108.41
-107.79
-109.49
-107.77
-98.54
-79.97
-52.11
-16.54
23.66
64.17
100.06
127.3
144.24
152.26
154.91
155.83
156.96
158.03
157.63
154.62
149.23
142.8
136.84
131.99
127.65
122.56
115.73
107.15
97.84
89.36
83
79.1
76.91
74.97
71.76
66.42
59.06
50.61
42.23
34.74
28.26
22.41
16.67
10.92
5.47
0.89
-2.43
-4.56
-6.01
-7.4
-9.19
-11.53
-14.26
-17.12
-19.84
-22.14
-23.72
-24.27
-23.52
-21.49
-18.47
-15.03
-11.84
-9.43
-8.15
-8.06
-9.05
-10.88
-13.22
-15.61
-17.49
-18.26
-17.39
-14.54
-9.65
-3.03
4.72
12.82
20.42
26.81
31.59
34.67
36.37
37.23
37.83
38.61
39.71
41
42.13
42.68
42.34
40.96
38.54
35.2
31.19
26.9
22.84
19.57
17.51
16.7
16.68
16.49
15.06
11.65
6.21
-0.48
-7.1
-12.31
-15.28
-15.94
-14.89
-13.04
-11.17
-9.7
-8.71
-8.12
-7.96
-8.55
-10.41
-14.1
-19.9
-27.6
-36.42
-45.06
-52.01
-55.89
-55.76
-51.42
-43.47
-33.31
-23.01
-14.94
-11.31
-13.57
-21.87
-34.82
-49.68
-62.96
-71.35
-72.65
-66.46
-54.16
-38.29
-21.72
-6.63
5.68
14.66
20.01
21.2
17.45
8.52
-4.57
-19.04
-30.67
-35.19
-29.87
-14.84
6.71
29.55
48.28
59.07
60.66
54.36
42.99
29.61
16.52
4.99
-4.41
-11.35
-15.6
-17.15
-16.42
-14.34
-11.97
-9.82
-7.57
-3.99
2.31
12.01
24.72
39.06
53.31
66.19
77.26
86.76
95.29
103.3
111.04
118.64
126.21
133.79
141.13
147.61
152.21
153.93
152.23
147.27
139.96
131.46
122.81
114.53
106.68
98.9
90.8
82.04
72.45
62.05
50.96
39.46
27.94
16.98
7.19
-0.76
-6.39
-9.53
-10.52
-10.25
-10.09
-11.47
-15.45
-22.25
-31.16
-40.73
-49.26
-55.33
-58.2
-57.87
-54.99
-50.59
-45.9
-42.03
-39.81
-39.57
-41.05
-43.6
-46.32
-48.53
-50.03
-51.39
-53.81
-58.73
-67.14
-78.79
-91.96
-103.87
-111.74
-114.04
-111.22
-105.5
-99.63
-95.41
-92.73
-89.79
-84.27
-74.58
-60.87
-44.67
-28.1
-12.97
-0.36
9.15
14.94
16.21
12.13
2.39
-12.31
-30.21
-48.77
-65.17
-76.93
-82.24
-80.55
-72.57
-60.42
-46.99
-35.13
-26.65
-21.79
-19.35
-17.14
-12.73
-3.98
10.25
29.53
51.38
71.43
84.81
88.01
80.81
66.98
53.12
46.13
50.47
66.39
90.05
115.42
136.56
149.65
153.75
150.47
142.82
133.91
125.96
119.48
113.58
106.41
96.26
82.39
65.49
47.6
31.48
19.76
14.16
15.08
21.47
31.38
42.7
53.85
64.1
73.42
81.88
88.98
93.5
93.66
87.92
75.59
57.11
33.91
7.9
-18.99
-44.93
-68.02
-86.31
-98.04
-102.19
-99.05
-90.38
-79.02
-67.99
-59.47
-54.23
-51.65
-50.38
-49.04
-47.01
-44.38
-41.72
-39.54
-37.84
-36.06
-33.5
-29.77
-25.14
-20.47
-16.83
-15.31
-17.01
-23.36
-36.08
-56.6
-85.05
-119.41
-155.42
-187.5
-210.37
-220.68
-217.7
-203.09
-179.8
-150.95
-119.16
-86.51
-54.82
-25.73
-0.64
19.72
35.55
47.91
58.28
67.97
77.59
86.84
94.79
100.37
102.93
102.54
99.96
96.36
92.83
90.12
88.25
86.58
83.98
79.14
71.06
59.57
45.53
30.73
17.44
7.85
3.46
4.7
11.01
20.93
32.61
44.12
53.86
60.69
64.04
63.91
60.73
55.16
47.72
38.62
27.6
14.1
-2.34
-21.85
-43.79
-66.76
-88.7
-107.22
-120.19
-126.19
-124.89
-116.93
-103.87
-87.57
-69.83
-52.19
-35.87
-22.07
-12.21
-7.97
-10.78
-21.34
-39.25
-63.16
-91.21
-121.29
-150.98
-177.14
-195.96
-203.72
-198.47
-181.33
-156.94
-131.73
-111.56
-99.29
-94
-92.25
-90.7
-88.27
-86.45
-88.04
-95.11
-107.54
-123.21
-138.96
-151.79
-159.49
-160.7
-154.91
-142.7
-126.06
-108.13
-92.34
-81.06
-74.54
-70.76
-66.54
-58.97
-46.64
-29.67
-8.87
15.39
43.66
76.8
115.03
156.78
198.41
234.83
260.86
272.85
269.79
253.72
228.97
200.81
173.91
151.21
133.56
120.1
109.29
99.81
91.46
85.21
82.9
86.5
97.56
116.91
144.37
178.51
216.31
253.12
283.42
302.29
307.22
299.09
281.71
260.05
238
217
196.16
173.65
148.2
119.71
88.8
55.86
20.63
-17.3
-57.43
-97.57
-134.09
-163.25
-182.55
-191.78
-192.81
-188.59
-181.85
-174.24
-166.05
-156.53
-144.62
-129.5
-110.79
-88.63
-63.46
-36.01
-7.44
20.51
45.41
64.46
75.1
75.81
66.78
50.05
28.99
7.31
-12
-27.34
-38.46
-46.01
-50.8
-53.42
-54.34
-54.19
-54.08
-55.4
-59.26
-65.81
-73.89
-81.39
-86.02
-86.32
-82.18
-74.62
-65.04
-54.43
-43
-30.46
-16.56
-1.71
13.05
26.47
37.73
46.97
55.23
63.87
73.92
85.65
98.55
111.73
124.45
136.41
147.7
158.43
168.46
177.36
184.55
189.72
193
194.89
195.85
195.82
194.14
189.76
181.67
169.31
152.47
130.94
104.18
71.3
31.78
-13.5
-61.49
-107.19
-144.84
-169.8
-180.03
-176.54
-162.8
-143.15
-121.34
-99.61
-78.6
-58.01
-37.41
-16.83
3.06
21.12
36.1
47.08
53.6
55.75
53.73
47.11
34.35
13.11
-18.69
-61.21
-111.62
-164.41
-212.94
-251.49
-276.94
-288.93
-288.72
-277.93
-258.34
-233.16
-208.29
-192.03
-192.39
-213.17
-251
-295.84
-334.79
-357.63
-360.85
-348.16
-327.43
-306.23
-288.51
-273.91
-259.77
-243.64
-225
-205.06
-185.47
-166.97
-148.77
-129.15
-106.17
-78.73
-47.06
-12.21
24.73
63.34
103.83
146.13
188.8
228.43
260.31
280.22
286.43
280.64
267.4
252.04
238.61
228.63
221.58
216.23
212.02
209.36
208.83
209.96
210.75
208.22
199.95
185.39
166.36
146.31
128.96
116.82
110.64
109.56
111.91
115.83
119.59
121.64
120.65
115.77
106.86
94.6
80.04
64.17
47.48
30.07
12.23
-5
-19.69
-29.53
-32.74
-28.92
-19.27
-6.09
8.06
21.28
32.8
42.88
52.33
61.89
71.82
81.76
90.97
98.54
103.79
106.32
106.02
102.91
97.1
88.72
78.14
66.03
53.38
41.29
30.63
21.95
15.36
10.68
7.39
4.7
1.55
-2.98
-9.02
-15.47
-19.77
-18.87
-10.67
4.47
23.06
39.22
46.6
40.55
19.71
-13.8
-55.24
-98.96
-139.88
-174.39
-200.52
-217.34
-224.36
-220.94
-206.41
-180.33
-143.17
-96.64
-43.85
11.17
64.14
111.29
149.87
178.3
196.1
203.71
202.28
193.4
178.93
160.75
140.71
120.65
102.31
87.04
75.52
67.4
61.26
54.87
45.88
32.45
13.92
-8.97
-34.22
-59.17
-81.11
-98.01
-108.79
-113.45
-112.7
-107.7
-99.96
-91.36
-84.2
-80.72
-82.14
-87.65
-94.17
-97.36
-93.79
-83.32
-70.09
-61.42
-64.61
-83.55
-116.63
-157.2
-196.25
-225.78
-241.23
-241.87
-229.5
-206.64
-175.2
-136.31
-90.91
-40.33
13.65
69.3
125.43
181.1
234.78
283.44
322.63
347.79
356.28
349.02
330.5
307.18
284.78
266.2
251.05
236.82
220.84
201.81
180.2
157.42
134.65
112.03
88.66
63.28
35.06
4.23
-27.71
-58.51
-86.01
-108.83
-126.81
-140.82
-152.01
-161.14
-168.19
-172.47
-173.2
-169.91
-162.56
-151.03
-134.71
-112.38
-82.93
-46.48
-4.97
38.01
78.4
113.18
141.5
164.75
185.66
206.67
228.09
247.96
262.52
267.81
261.14
242.17
213.04
177.73
140.82
105.42
73.09
43.88
16.99
-8.29
-32.07
-53.7
-72.25
-87.11
-100.47
-115.3
-134.26
-158.29
-186.13
-214.79
-240.95
-262.09
-277.13
-289.66
-303.88
-322.74
-346.59
-373.3
-399.68
-422.98
-441.57
-454.72
-466.24
-479.4
-495.51
-513.4
-530.44
-544.41
-554.78
-562.31
-549.04
-503.54
-421.3
-308.07
-177.48
-44.07
81.62
193.72
286.4
362.73
420.99
458.5
474.04
469.66
450.7
424.2
394.41
366.12
343.37
325.22
309.6
294.55
279.04
263
246.65
230.12
213.89
198.84
183.75
167.72
150.41
131.86
112.14
90.92
67.19
39.92
8.37
-28.51
-69.98
-112.97
-152.63
-183.69
-202.55
-208.55
-203.82
-192.32
-178.47
-165.3
-154.11
-145.49
-140.44
-140.61
-147.41
-160.41
-176.76
-192.15
-202.65
-206.53
-204.71
-199.58
-192.86
-184.02
-170.13
-147.56
-114.16
-70.91
-22.13
25.92
67.13
97.48
115.92
124.23
126.05
125.59
126.32
130.18
137.49
147.24
157.75
167.28
174.37
177.9
176.82
170.17
157.14
137.36
111.24
80.19
46.72
14.37
-12.51
-29.52
-33.24
-22.57
0.31
29.99
59.19
81.23
92.33
92.8
86.3
77.95
71.91
69.97
71.49
74.49
76.98
77.78
76.54
73.29
67.87
59.84
48.71
34.57
18.4
2.07
-12.21
-22.6
-28.29
-29.55
-27.19
-21.92
-13.73
-2.2
12.93
30.97
50.03
67.46
80.64
87.79
88.24
82.22
70.35
53.28
31.43
5.14
-25.11
-58.54
-93.98
-130.09
-165.31
-197.78
-225.21
-245.03
-254.98
-254.03
-243.17
-225.48
-205.34
-186.81
-172.05
-160.54
-149.63
-136.09
-117.89
-95.17
-70.12
-45.77
-24.55
-7.33
6.81
20.02
34.57
51.9
71.9
92.96
112.5
127.95
137.58
141.01
139.24
134.04
127.33
120.54
114.36
108.76
103.31
97.29
89.9
80.29
67.52
50.96
30.68
7.9
-14.96
-34.92
-49.35
-57.01
-58.48
-55.79
-51.43
-47.18
-43.59
-40.1
-35.81
-30.25
-23.73
-17.08
-11.06
-5.88
-1.16
3.9
10.05
17.75
27.06
37.64
48.89
60.1
70.61
79.93
87.81
94.22
99.05
101.94
102.17
98.86
91.46
80.18
66.11
50.99
36.56
24.03
13.85
5.98
0.26
-3.24
-4.3
-2.95
0.2
3.91
6.84
8.12
8.02
7.92
9.85
15.69
26.5
42.14
61.28
81.48
99.52
111.69
114.39
104.71
81.09
43.64
-5.73
-63.37
-124.13
-181.96
-230.89
-266.37
-286.51
-292.54
-288.21
-278.14
-265.91
-252.72
-237.49
-217.87
-191.85
-158.78
-119.73
-77.29
-35
3.13
33.44
53.53
63.25
65.05
63.26
62.41
65.33
72.29
81.53
90.92
99.57
108.37
119.08
132.76
148.69
164.65
178.18
187.9
193.9
197.02
197.64
194.93
187.21
173.22
153.48
130.69
108.93
92.04
81.99
78.08
77.12
74.56
65.97
48.4
21.29
-13.19
-50.13
-82.74
-103.87
-108.21
-94.43
-66.27
-31.92
-1.44
16.73
18.73
6.17
-15.1
-37.92
-56.63
-68.62
-74.19
-75.14
-73.34
-69.91
-65.27
-59.72
-53.92
-48.82
-45.1
-42.66
-40.57
-37.64
-33.39
-29.05
-27.49
-32.17
-45.56
-67.6
-95.38
-124.24
-149.63
-168.94
-182.28
-191.67
-199.53
-207.14
-214.07
-218.74
-219.6
-215.97
-208.3
-197.58
-184.51
-168.91
-149.86
-126.2
-97.21
-63.16
-25.26
14.53
54.13
91.66
125.62
154.79
178.1
194.65
203.88
206.17
203.06
197.11
191.18
187.45
186.63
188.07
190.39
192.3
193.19
192.88
191.2
187.83
182.47
175.3
167.19
159.28
152.11
145.25
137.71
129.12
120.93
116.43
119.32
131.51
151.6
174.82
194.73
205.6
204.38
191
167.56
136.82
100.91
60.97
17.21
-30.64
-83.2
-140.97
-203.63
-268.94
-332.03
-385.78
-423.01
-439.09
-434.33
-414.37
-388.21
-364.73
-349.31
-342.1
-338.72
-332.88
-319.3
-295.75
-263.26
-224.84
-183.64
-141.51
-98.42
-52.87
-3.05
51.7
109.62
166.1
214.12
245.87
254.7
237.14
193.98
130.52
55.69
-19.73
-85.1
-131.93
-155.19
-153.87
-130.45
-89.78
-37.66
20.25
78.94
134.05
181.81
219.18
244.5
258.02
261.91
259.53
254.26
248.24
242.1
235.26
226.79
216.28
204.21
191.69
179.93
169.69
161.02
153.51
146.61
140.01
133.69
127.76
122.21
116.79
111.09
104.78
97.83
90.48
83.06
75.79
68.71
61.82
55.23
49.36
44.69
41.46
39.37
37.51
34.67
29.76
22.18
11.94
-0.5
-14.44
-29.23
-44.35
-59.38
-73.82
-87.03
-98.18
-106.37
-111.04
-112.14
-110.33
-106.85
-103.11
-100.38
-99.43
-100.44
-103.17
-107.19
-112
-117.13
-122.04
-126.05
-128.41
-128.57
-126.34
-122.1
-116.65
-110.94
-105.68
-101.02
-96.45
-90.99
-83.51
-73.19
-59.82
-43.81
-26.07
-7.81
9.77
25.64
39.1
49.82
57.81
63.34
66.77
68.43
68.51
67.11
64.29
60.16
55
49.28
43.64
38.87
35.67
34.47
35.23
37.36
39.88
41.87
42.73
42.38
41.17
39.66
38.49
38.25
39.43
42.29
46.61
51.59
55.93
58.31
57.87
54.55
48.98
42.09
34.72
27.56
21.34
17
15.69
18.23
24.7
34.18
45.23
56.46
67.2
77.61
88.42
100.53
114.48
130.25
147.22
164.14
179.27
190.63
196.41
195.52
187.94
174.56
156.76
135.82
112.49
87.12
60.05
32.06
4.28
-22.03
-46.29
-69.05
-92.02
-117.72
-149.04
-188.79
-239.04
-300.13
-369.49
-441.14
-506.38
-556.12
-583.89
-588.13
-572.6
-544.49
-511.38
-478.64
-448.46
-420.78
-394.93
-370.91
-349.28
-330.33
-313.12
-295.42
-274.6
-248.96
-218.49
-184.77
-150.3
-117.18
-86.23
-56.66
-26.45
6.87
45.08
88.39
134.86
180.55
220.43
249.82
265.9
268.6
260.78
247.17
233.03
222.52
217.99
219.86
227.2
238.38
251.71
265.58
278.47
288.89
295.41
296.62
291.35
278.69
258.04
229.15
192.3
148.47
99.5
48.02
-2.79
-49.63
-89.76
-121.31
-143.32
-155.56
-158.02
-150.65
-133.38
-106.35
-70.16
-25.87
25.06
80.68
138.21
193.91
243.37
282.39
308.44
321.54
324.19
320.12
312.46
302.15
287.71
266.47
236.42
197.75
153.16
106.97
63.41
25.31
-6.44
-32.38
-53.65
-71.26
-85.74
-97.45
-106.93
-115.09
-122.82
-130.46
-137.32
-141.89
-142.6
-138.67
-130.76
-120.68
-110.46
-101.26
-92.57
-82.29
-67.53
-45.88
-16.57
18.79
56.25
90.19
114.53
124.29
116.96
93.47
58.2
17.91
-20.12
-50.02
-68.65
-75.89
-73.91
-66.04
-55.69
-45.59
-37.47
-31.94
-28.43
-25.48
-21.47
-15.54
-8.4
-2.44
-0.79
-5.84
-17.83
-34.38
-51.28
-64.06
-69.77
-67.91
-60.33
-50.41
-41.82
-37.47
-38.92
-46.13
-57.55
-70.48
-81.69
-88.29
-88.57
-82.74
-73.03
-62.91
-56.13
-54.93
-59.25
-66.4
-72.15
-72.41
-65
-50.61
-32.24
-13.84
1.46
12.09
18.1
20.48
20.74
21.06
23.95
31.32
42.56
53.27
56.29
45.13
18.21
-18.88
-55.1
-78.94
-83.88
-71.21
-48.47
-25.27
-9
-2.93
-8.01
-24.92
-55.52
-101.18
-160.04
-225.03
-284.67
-326.75
-342.72
-330.66
-295.28
-245.41
-190.03
-135.18
-82.8
-31.96
18.57
68.21
114.09
152.32
180.07
197.12
205.78
209.4
210.27
208.45
202
188.69
168.1
142.64
117.2
97.3
86.98
87.29
96.13
109.22
121.88
130.56
133.88
132.6
128.77
124.57
121.27
118.71
115.53
109.92
100.54
87.1
70.48
52.21
33.93
16.81
1.54
-11.55
-22.17
-30.01
-34.91
-37.08
-37.31
-36.83
-36.92
-38.34
-40.97
-43.78
-45.29
-44.33
-40.59
-34.91
-29
-24.79
-23.73
-26.32
-32.06
-39.68
-47.72
-54.87
-60.39
-64.04
-66.03
-66.79
-66.81
-66.54
-66.31
-66.39
-66.99
-68.23
-70.11
-72.34
-74.4
-75.49
-74.66
-70.95
-63.67
-52.51
-37.67
-19.73
0.47
22.08
44.28
66.26
87.07
105.68
120.99
132.26
139.28
142.54
142.98
141.71
139.8
138.13
137.44
138.24
140.6
144.04
147.61
150.22
151.04
149.7
146.16
140.23
131.3
118.39
100.56
77.41
49.4
17.6
-16.79
-52.94
-90.58
-130.15
-172.64
-219.11
-269.93
-323.33
-374.5
-415.61
-437.75
-434.13
-403.17
-349.83
-284.08
-217.37
-158.57
-111.83
-76.81
-50.9
-31.46
-16.78
-5.48
4.58
16.73
34.5
59.71
90.93
123.38
150.54
166.8
169.72
160.97
145.46
129.27
117.34
112.07
113.24
119.1
127.67
137.53
147.67
156.7
162.43
162.17
154.15
138.8
119.19
100.05
85.71
78.19
76.4
76.93
75.84
70.53
60.58
47.36
32.81
18.17
3.43
-12.38
-30.15
-49.81
-69.88
-87.93
-101.38
-108.5
-109
-103.99
-95.39
-85.21
-74.99
-65.62
-57.55
-51.04
-46.24
-43.02
-40.71
-38.15
-34.07
-27.74
-19.51
-10.9
-4.12
-1.14
-2.92
-9
-17.77
-27.08
-34.95
-39.96
-41.34
-38.84
-32.67
-23.52
-12.6
-1.59
7.72
13.84
15.98
14.35
10.02
4.58
-0.36
-3.79
-5.58
-6.67
-8.69
-13.46
-22.17
-34.85
-50.14
-65.64
-78.73
-87.47
-91.26
-90.9
-88.06
-84.49
-81.25
-78.35
-74.91
-69.68
-61.62
-50.3
-36
-19.46
-1.76
16.01
32.81
47.81
60.56
70.99
79.41
86.33
92.28
97.62
102.56
107.21
111.49
115.23
117.98
119.02
117.42
112.27
102.9
89.12
71.21
49.86
25.96
0.55
-25.29
-50.34
-73.35
-93.2
-109.14
-121.07
-129.55
-135.43
-139.32
-141.11
-139.93
-134.61
-124.43
-109.93
-92.94
-75.95
-61.09
-49.21
-39.58
-30.33
-19.38
-5.26
12.35
32.6
53.54
72.57
86.94
94.72
95.65
91.72
86.76
85.21
90.33
102.8
120.34
138.53
152.42
158.24
154.36
141.41
121.7
98.21
73.68
50.01
28.11
8.16
-9.72
-24.94
-36.4
-43.01
-44.45
-41.74
-36.86
-31.89
-27.75
-23.68
-17.53
-6.76
10.28
33.55
61.23
89.99
115.56
133.45
139.88
132.69
112.15
81.03
43.85
5.43
-30.57
-62.41
-90.16
-114.64
-136.47
-155.24
-169.52
-177.23
-176.35
-165.54
-144.64
-114.78
-78.36
-38.62
0.82
36.36
64.9
84.02
92.37
89.89
78.06
59.76
38.62
18.07
0.37
-13.89
-25.56
-36.15
-46.98
-58.6
-70.89
-83.52
-96.41
-109.79
-123.59
-136.58
-145.75
-146.7
-135.25
-109.56
-71.64
-27.35
15.41
49.49
70.88
79.46
78.13
70.97
61.71
52.97
46.36
42.46
40.54
38.26
31.98
18.22
-4.19
-32.67
-61.18
-82.31
-90.25
-82.95
-62.49
-33.67
-1.78
29.15
57.06
81.47
102.72
121.39
137.81
152.06
163.9
173.04
179.41
183.68
187.43
192.76
201.26
212.79
225.02
234
235.86
228.74
213.77
194.65
175.88
160.51
148.84
138.51
126.03
108.77
86.25
60.09
32.69
5.65
-21.36
-50.48
-84.57
-126.06
-176.08
-234.45
-299.96
-370.26
-441.27
-506.81
-559.18
-591.18
-598.89
-583.59
-551.51
-511.27
-470.21
-431.68
-394.58
-355.28
-310.54
-259.81
-205.72
-152.84
-105.96
-68.6
-42.66
-28.69
-26.36
-34.7
-52.27
-76.88
-105.43
-134.01
-158.19
-173.93
-178.55
-171.63
-155.15
-132.71
-108.14
-84.03
-61.06
-38.34
-14.4
11.55
39.04
66.52
92.3
115.61
137.14
158.85
183.31
212.59
247.39
286.37
326.11
361.63
387.52
399.6
396.28
379.4
353.57
324.51
297.02
273.55
253.98
236.73
220.13
203.53
187.27
172.02
157.87
143.96
128.9
111.57
91.92
71.11
51.11
33.97
21
12.57
8.18
6.95
8.06
11.01
15.6
21.46
27.79
33.22
36.16
35.37
30.59
22.71
13.54
5.13
-0.94
-3.97
-4.26
-2.85
-1.06
-0.07
-0.71
-3.23
-7.51
-13.2
-20.08
-28.13
-37.57
-48.54
-60.74
-73.29
-84.75
-93.68
-99.09
-100.91
-99.88
-97.2
-93.97
-90.87
-88.08
-85.28
-81.7
-76.06
-66.56
-51.35
-29.39
-1.48
29.33
58.41
81.07
94.16
97.01
91.04
78.77
62.73
45.07
27.87
13.4
3.78
0.12
1.37
4.18
3.85
-3.74
-20.4
-44.9
-73.57
-101.73
-125.02
-140.09
-144.77
-137.89
-119.42
-90.78
-55.24
-17.72
16.17
41.64
56.31
60.97
59.21
56
55.7
60.36
69.15
78.87
85.51
85.9
78.92
65.67
48.77
31.32
15.82
3.82
-4.16
-8.24
-9
-7.27
-4.01
-0.06
4.32
9.88
18.37
31.98
52.17
78.65
108.94
138.94
164.23
181.77
190.82
193.01
191.3
188.64
186.86
186.21
185.66
183.57
178.26
168.38
153.08
132.16
106.17
76.5
45.13
14.3
-14.09
-38.82
-59.45
-76.15
-89.43
-99.99
-108.53
-115.9
-122.9
-130.2
-138.19
-146.98
-156.4
-166.06
-175.3
-183.17
-188.37
-189.48
-185.33
-175.41
-160.22
-141.12
-120.01
-98.85
-79.21
-62.13
-48.07
-37.04
-28.77
-22.72
-18.29
-14.8
-11.77
-8.92
-6.31
-4.19
-2.83
-2.38
-2.78
-3.75
-4.91
-5.86
-6.19
-5.56
-3.73
-0.62
3.6
8.49
13.43
17.77
20.94
22.58
22.41
20.28
16.15
10.17
2.86
-4.9
-11.96
-17.25
-20.06
-20.29
-18.41
-15.23
-11.59
-8.09
-5
-2.34
-0.03
1.95
3.53
4.6
5.03
4.7
3.56
1.61
-1
-4.02
-7.08
-9.76
-11.68
-12.63
-12.55
-11.56
-9.89
-7.84
-5.77
-4.05
-2.97
-2.72
-3.28
-4.43
-5.86
-7.21
-8.28
-9.03
-9.54
-9.93
-10.18
-10.21
-9.82
-8.86
-7.32
-5.35
-3.23
-1.26
0.34
1.49
2.27
2.87
3.59
4.73
6.49
8.95
11.96
15.24
18.44
21.24
23.51
25.25
26.57
27.6
28.37
28.78
28.66
27.86
26.37
24.39
22.24
20.24
18.6
17.35
16.35
15.42
14.45
13.48
12.64
12.09
11.96
12.33
13.24
14.7
16.61
18.8
20.92
22.49
23.06
22.26
19.93
16.21
11.46
6.2
1.02
-3.63
-7.47
-10.48
-12.95
-15.27
-17.87
-21
-24.59
-28.21
-31.26
-33.14
-33.47
-32.26
-29.79
-26.51
-22.81
-18.86
-14.66
-10.04
-4.86
0.84
6.81
12.51
17.26
20.36
21.39
20.34
17.67
14.15
10.62
7.71
5.71
4.61
4.21
4.36
4.89
5.71
6.66
7.54
8.15
8.38
8.28
8.03
7.89
8.09
8.75
9.87
11.34
12.96
14.53
15.89
16.91
17.54
17.83
17.89
17.84
17.78
17.62
17.04
15.42
11.92
5.7
-3.69
-15.88
-29.47
-42.13
-51.34
-55.19
-53.13
-46.06
-35.84
-24.46
-13.2
-2.43
8.14
18.9
29.72
39.81
47.94
52.85
53.7
50.32
43.33
34.1
24.65
17.4
14.66
18.02
27.87
43.14
61.49
79.8
94.75
103.56
104.41
96.77
81.35
59.93
34.84
8.51
-16.96
-39.98
-59.25
-73.54
-81.5
-82.19
-75.87
-64.67
-52.61
-44.42
-43.9
-52.08
-66.68
-82.61
-93.78
-95.28
-84.8
-63.31
-34.23
-2.18
28.51
54.76
75.08
89.39
98.32
102.84
103.66
101.31
96.14
88.61
79.43
69.47
59.92
52.08
47.34
46.83
51.06
59.48
70.35
81.1
88.94
91.69
88.22
78.74
64.37
46.67
27.1
6.71
-13.77
-33.75
-52.41
-68.56
-80.67
-87.06
-86.42
-78.24
-63.39
-44.34
-24.9
-9.4
-1.44
-2.73
-12.38
-27.18
-42.56
-54.24
-59.48
-57.79
-50.59
-40.32
-29.52
-20.15
-13.4
-9.69
-8.72
-9.51
-10.57
-10.26
-7.4
-1.75
5.69
12.89
17.35
16.86
10.21
-2.5
-19.84
-39.38
-58.3
-73.87
-83.99
-87.45
-84.05
-74.55
-60.45
-43.69
-26.31
-10.18
3.39
13.58
20.09
22.89
22.11
18.23
12.28
6.06
1.92
1.97
6.94
15.33
23.41
26.38
20.22
3.55
-21.58
-50.36
-77.15
-97.68
-110.54
-117.16
-120.56
-123.66
-128.16
-134.46
-142.37
-151.69
-162.22
-173.14
-182.37
-186.83
-183.56
-171.15
-150.5
-124.31
-95.62
-66.42
-37.22
-7.95
20.74
46.72
66.93
78.79
81.63
77.03
67.96
57.31
46.82
37.03
27.91
19.68
13.03
8.72
6.97
7.05
7.6
7.24
5.24
1.88
-1.78
-4.66
-6.3
-7.41
-9.7
-15.26
-25.59
-40.74
-59.02
-77.38
-92.38
-101.15
-102.56
-97.64
-89.54
-82.84
-82.25
-90.98
-109.58
-135.59
-164.48
-191.42
-213.17
-228.94
-239.85
-247.32
-251.49
-250.52
-241.47
-222.03
-192.22
-155
-115.38
-78.59
-48.02
-24.24
-5.23
12.37
31.62
54.03
79.33
105.8
131.17
153.48
171.34
184.27
192.7
198.1
202.86
209.76
221.04
237.3
256.96
276.49
291.66
299.23
298.34
290.96
281.19
273.32
269.7
269.09
266.47
254.73
227.74
183.49
126.01
64.64
10.79
-26.38
-43.41
-43.58
-34.87
-26.3
-24.31
-31.01
-44.68
-61.66
-78.61
-93.53
-105.72
-114.89
-120.51
-121.79
-118.32
-110.76
-101.14
-92.47
-87.77
-89
-96.32
-108.12
-121.76
-134.62
-145.1
-152.99
-159.22
-164.98
-170.79
-175.82
-178
-174.54
-162.97
-141.95
-111.77
-74.2
-32.03
11.56
53.5
