0
0
0
0
0
0
0
0
0
0
0
0.01
0.01
0
-0.03
-0.05
-0.05
0
0.13
0.36
0.66
1.01
1.37
1.72
2.06
2.4
2.79
3.24
3.8
4.42
5.06
5.66
6.2
6.68
7.15
7.68
8.31
9.14
10.09
11.04
11.88
12.56
13.14
13.76
14.65
15.96
17.91
20.32
22.9
25.38
27.58
29.57
31.68
34.32
37.81
42.54
48.15
54.1
59.83
64.97
69.58
74.14
79.34
85.71
93.76
103
112.62
121.73
129.77
136.75
143.3
150.75
157.77
166.64
177.95
191.79
206.97
220.57
228.25
225.36
208.53
176.87
132.76
80.05
23.07
-34.94
-92.44
-149.16
-205.23
-260.37
-313.74
-363.87
-409.83
-450.9
-486.48
-515.71
-537.18
-549.15
-549.86
-538.23
-514.02
-478.44
-433.6
-382.11
-326.62
-269.38
-212.1
-156.06
-102.29
-51.63
-5.09
36.47
72.4
102.42
126.66
145.65
160.08
170.66
178.02
182.55
184.55
184.24
181.9
177.87
172.56
166.39
159.69
152.72
145.62
138.46
131.28
124.14
117.08
110.19
103.53
97.15
91.09
85.37
80
74.98
70.33
66.05
62.16
58.64
55.51
52.76
50.38
48.4
46.78
45.53
44.61
43.99
43.58
43.28
42.94
42.4
41.49
40.02
37.85
34.89
31.1
26.51
21.17
15.26
9
2.64
-3.55
-9.33
-14.45
-18.75
-22.12
-24.5
-25.89
-26.37
-26.05
-25.05
-23.53
-21.62
-19.45
-17.11
-14.67
-12.17
-9.66
-7.16
-4.67
-2.19
0.31
2.83
5.41
8.07
10.85
13.71
16.64
19.62
22.66
25.76
28.97
32.3
35.81
39.56
43.48
47.52
51.67
55.92
60.29
64.78
69.46
74.38
79.64
85.11
90.7
96.37
102.09
107.87
113.68
119.53
125.43
131.43
137.22
142.56
147.22
150.95
153.47
154.4
153.26
149.33
143.98
137.73
130.91
123.76
116.48
109.21
102.07
95.2
88.69
82.72
77.08
71.7
66.49
61.43
56.5
51.73
47.14
42.8
38.83
35.11
31.58
28.22
25.05
22.07
19.32
16.85
14.68
12.88
11.34
9.98
8.76
7.61
6.51
5.44
4.39
3.36
2.39
1.44
0.49
-0.43
-1.31
-2.16
-2.93
-3.62
-4.22
-4.71
-5.12
-5.5
-5.88
-6.27
-6.68
-7.07
-7.4
-7.62
-7.7
-7.64
-7.49
-7.3
-7.11
-7.01
-6.99
-7.06
-7.2
-7.44
-7.81
-8.39
-9.25
-10.43
-11.94
-13.66
-15.44
-17.12
-18.62
-19.98
-21.35
-22.96
-25
-27.54
-30.46
-33.53
-36.49
-39.23
-41.88
-44.78
-48.38
-53.05
-58.86
-65.53
-72.55
-79.41
-85.84
-92.04
-98.58
-106.22
-115.57
-126.76
-139.39
-152.73
-166
-178.72
-190.9
-203
-215.74
-230.05
-246.89
-267.12
-290.85
-316.94
-342.59
-363.73
-376.1
-376.82
-365.5
-344.38
-317.4
-288.62
-260.91
-235.43
-212.08
-190.45
-170.44
-152.4
-136.67
-123.09
-110.89
-98.94
-86.46
-73.35
-60.27
-48.29
-38.34
-30.68
-24.85
-19.9
-14.88
-9.2
-2.9
3.54
9.45
14.31
17.96
20.51
22.32
23.76
25.1
26.47
27.83
29.04
29.97
30.58
30.91
31.09
31.24
31.41
31.52
31.44
31.07
30.48
29.85
29.42
29.32
29.51
29.81
29.98
29.88
29.52
29.08
28.71
28.55
28.6
28.77
28.92
28.93
28.75
28.36
27.8
27.13
26.43
25.74
25
24.13
23.09
21.88
20.61
19.45
18.55
18
17.76
17.74
17.79
17.82
17.75
17.54
17.16
16.68
16.18
15.81
15.66
15.74
15.99
16.28
16.47
16.45
16.15
15.53
14.58
13.4
12.13
11.04
10.36
10.18
10.42
10.81
11.07
10.98
10.52
9.8
9.07
8.51
8.28
8.38
8.73
9.19
9.56
9.72
9.62
9.3
8.82
8.28
7.73
7.2
6.73
6.4
6.29
6.48
7.02
7.83
8.81
9.84
10.77
11.49
11.97
12.21
12.25
12.17
12.02
11.84
11.6
11.29
10.91
10.48
10.09
9.81
9.7
9.76
9.91
10.07
10.16
10.13
9.92
9.56
9.03
8.41
7.73
7.08
6.52
6.03
5.62
5.27
5.02
4.89
4.93
5.11
5.35
5.54
5.57
5.44
5.23
5.1
5.12
5.35
5.73
6.1
6.35
6.4
6.34
6.28
6.36
6.59
6.88
7.03
6.89
6.46
5.84
5.18
4.58
4
3.38
2.7
2.05
1.62
1.58
1.97
2.63
3.28
3.74
3.94
4.01
4.12
4.43
4.94
5.48
5.82
5.83
5.51
4.99
4.55
4.37
4.49
4.8
5.02
4.97
4.58
3.96
3.32
2.84
2.62
2.63
2.78
2.95
3.08
3.17
3.26
3.38
3.5
3.55
3.43
3.04
2.39
1.58
0.81
0.31
0.22
0.5
0.97
1.38
1.58
1.49
1.19
0.83
0.5
0.26
0.14
0.16
0.37
0.8
1.41
2.12
2.79
3.23
3.35
3.15
2.76
2.35
2.14
2.25
2.73
3.5
4.43
5.38
6.24
6.91
7.32
7.41
7.16
6.62
5.89
5.08
4.3
3.58
2.97
2.5
2.22
2.13
2.19
2.3
2.4
2.45
2.52
2.69
3.06
3.56
4.06
4.4
4.47
4.32
4.06
3.81
3.61
3.42
3.16
2.77
2.31
1.91
1.7
1.74
1.95
2.17
2.26
2.14
1.88
1.6
1.44
1.46
1.62
1.79
1.83
1.67
1.35
0.99
0.79
0.86
1.22
1.79
2.42
3.01
3.52
3.98
4.47
5.04
5.69
6.37
7.03
7.6
8.14
8.67
9.28
10.04
10.98
12.08
13.24
14.33
15.17
15.64
15.72
15.55
15.37
15.47
16.19
17.79
20.45
24.21
28.78
33.54
37.58
39.88
39.64
36.59
31.05
23.75
15.61
7.39
-0.35
-7.22
-12.87
-17.01
-19.45
-20.26
-19.84
-18.83
-17.85
-17.31
-17.26
-17.55
-17.97
-18.39
-18.82
-19.29
-19.77
-20.18
-20.31
-20.03
-19.34
-18.43
-17.55
-16.94
-16.68
-16.68
-16.78
-16.87
-16.86
-16.77
-16.58
-16.24
-15.56
-14.41
-12.75
-10.7
-8.6
-6.76
-5.44
-4.66
-4.27
-3.95
-3.4
-2.3
-0.48
2.05
5.06
8.07
10.46
11.65
11.39
9.87
7.71
5.72
4.59
4.61
5.7
7.49
9.5
11.41
12.99
14.12
14.74
14.8
14.39
13.67
13.01
12.75
13.22
14.54
16.63
19.21
21.99
24.76
27.43
30.03
32.61
35.16
37.54
39.74
41.88
44.39
47.93
53.08
60.08
68.51
77.44
85.63
91.93
95.58
96.3
94.27
90.07
84.57
78.77
73.56
69.35
65.93
62.48
57.99
51.74
43.72
34.76
26.15
19.16
14.61
12.63
12.68
13.71
14.44
13.79
11.34
7.71
4.52
3.81
7.16
14.72
25.06
35.64
43.96
48.63
49.83
49.16
48.77
50.51
55.25
62.44
70
74.59
72.39
60.4
37.95
7.56
-25.43
-54.4
-73.95
-81.96
-80.2
-73.33
-66.81
-64.69
-68.58
-77.67
-89.8
-102.64
-114.43
-124.02
-130.81
-134.39
-134.57
-131.62
-126.37
-120.21
-114.74
-111.2
-110.06
-110.91
-112.74
-114.45
-115.32
-115.21
-114.36
-112.96
-110.98
-107.93
-103.29
-96.81
-88.8
-80.19
-72.13
-65.71
-61.63
-60.14
-61.04
-63.87
-68.01
-72.68
-77.1
-80.53
-82.4
-82.44
-80.76
-77.68
-73.69
-69.22
-64.44
-59.23
-53.22
-45.95
-37.07
-26.58
-14.98
-3.23
7.32
15.41
20.15
21.38
19.64
16.04
11.81
7.99
5.13
3.4
2.68
2.75
3.49
4.74
6.39
8.19
9.96
11.63
13.39
15.77
19.52
25.48
34.26
45.81
59.3
73.11
85.26
93.96
98.2
98.08
94.64
89.44
83.86
78.72
74.1
69.69
65.09
60.25
55.44
51.09
47.5
44.55
41.77
38.43
33.97
28.15
21.29
14.07
7.34
1.84
-2.08
-4.46
-5.73
-6.44
-7.02
-7.69
-8.4
-9
-9.43
-9.68
-9.8
-9.64
-8.86
-7.02
-3.87
0.42
5.18
9.49
12.56
14.04
14.12
13.32
12.27
11.42
10.87
10.55
10.31
10.1
9.98
10.03
10.32
10.82
11.43
12.09
12.8
13.6
14.57
15.7
16.91
18.12
19.29
20.47
21.78
23.22
24.6
25.55
25.63
24.62
22.67
20.25
17.93
16.12
14.87
13.89
12.74
11.08
8.87
6.26
3.56
0.96
-1.45
-3.71
-5.83
-7.67
-9.11
-10.08
-10.69
-11.25
-12.12
-13.49
-15.33
-17.37
-19.23
-20.6
-21.36
-21.64
-21.65
-21.5
-21.04
-19.79
-17.2
-12.99
-7.39
-1.24
4.31
8.27
10.11
9.92
8.2
5.42
1.89
-2.32
-7.05
-11.85
-15.91
-18.42
-18.87
-17.34
-14.5
-11.23
-8.27
-5.97
-4.25
-2.86
-1.55
-0.32
0.7
1.32
1.53
1.55
1.8
2.65
4.31
6.67
9.46
12.35
15.1
17.69
20.2
22.72
25.09
26.94
27.82
27.36
25.57
22.86
20.11
18.36
18.6
21.38
26.49
32.97
39.22
43.65
45.17
43.67
40.09
36
33.08
32.47
34.43
38.4
43.37
48.23
52.15
54.62
55.36
54.24
51.18
46.21
39.65
32.24
25.14
19.65
16.78
16.85
19.33
22.95
26.12
27.55
26.5
22.96
17.43
10.67
3.33
-4.12
-11.44
-18.56
-25.4
-31.84
-37.68
-42.65
-46.5
-49.07
-50.4
-50.67
-50.24
-49.4
-48.38
-47.16
-45.61
-43.55
-40.92
-37.81
-34.44
-31.04
-27.76
-24.53
-21.23
-17.64
-13.78
-9.85
-6.28
-3.47
-1.71
-0.91
-0.76
-0.82
-0.75
-0.41
0.1
0.55
0.71
0.43
-0.29
-1.33
-2.57
-3.88
-5.2
-6.42
-7.45
-8.1
-8.21
-7.73
-6.78
-5.74
-4.98
-4.78
-5.16
-5.85
-6.38
-6.37
-5.59
-4
-1.72
1.07
4.19
7.42
10.5
13.11
14.93
15.74
15.48
14.23
12.21
9.74
7.1
4.59
2.4
0.66
-0.54
-1.16
-1.17
-0.61
0.43
1.73
3.07
4.19
4.98
5.4
5.47
5.2
4.63
3.8
2.87
2.09
1.75
2.04
2.96
4.28
5.66
6.77
7.39
7.48
7.13
6.45
5.55
4.42
2.99
1.21
-0.85
-2.96
-4.77
-5.91
-6.22
-5.74
-4.81
-3.76
-2.85
-2.08
-1.23
-0.03
1.6
3.45
5.16
6.27
6.53
5.91
4.61
2.93
1.11
-0.68
-2.34
-3.75
-4.73
-5.1
-4.72
-3.68
-2.21
-0.67
0.59
1.37
1.7
1.69
1.51
1.31
1.12
0.92
0.62
0.14
-0.55
-1.41
-2.26
-2.83
-2.83
-2.13
-0.77
0.91
2.49
3.56
3.94
3.66
2.85
1.77
0.6
-0.49
-1.34
-1.82
-1.79
-1.29
-0.43
0.55
1.34
1.69
1.49
0.75
-0.32
-1.47
-2.42
-2.96
-3.08
-2.88
-2.58
-2.41
-2.47
-2.8
-3.29
-3.82
-4.26
-4.51
-4.44
-4.03
-3.25
-2.19
-1.02
0.07
0.86
1.23
1.09
0.46
-0.6
-1.93
-3.3
-4.41
-4.99
-4.88
-4.11
-2.94
-1.71
-0.76
-0.26
-0.14
-0.2
-0.24
-0.18
-0.16
-0.33
-0.77
-1.38
-1.94
-2.19
-2.08
-1.77
-1.55
-1.69
-2.33
-3.4
-4.77
-6.32
-7.98
-9.73
-11.51
-13.19
-14.63
-15.77
-16.72
-17.8
-19.32
-21.51
-24.37
-27.64
-30.99
-34.13
-36.93
-39.49
-42.06
-44.91
-48.3
-52.39
-57.24
-62.88
-69.33
-76.55
-84.44
-92.86
-101.59
-110.5
-119.55
-128.8
-138.36
-148.26
-158.39
-168.41
-177.81
-185.96
-192.17
-195.66
-195.58
-191.04
-181.21
-165.48
-143.62
-115.81
-82.67
-45.15
-4.61
37.33
78.76
117.67
152.28
181.22
203.69
219.46
228.81
232.35
230.92
225.52
217.22
207.06
195.9
184.34
172.72
161.18
149.84
138.81
128.3
118.54
109.69
101.74
94.5
87.61
80.69
73.55
66.21
58.98
52.21
46.06
40.44
35.05
29.62
24.16
19.1
15.06
12.58
11.77
12.18
13
13.35
12.59
10.67
7.93
4.98
2.37
0.41
-0.92
-1.84
-2.58
-3.22
-3.67
-3.8
-3.61
-3.31
-3.28
-3.87
-5.22
-7.09
-8.99
-10.33
-10.7
-10.06
-8.74
-7.29
-6.29
-6.04
-6.46
-7.19
-7.69
-7.6
-6.8
-5.54
-4.27
-3.34
-2.92
-2.93
-3.18
-3.46
-3.72
-4.04
-4.53
-5.26
-6.21
-7.2
-8.01
-8.44
-8.39
-7.93
-7.25
-6.61
-6.26
-6.3
-6.69
-7.21
-7.59
-7.57
-6.98
-5.8
-4.09
-2.05
0.07
2
3.55
4.63
5.26
5.56
5.62
5.53
5.28
4.93
4.5
4.09
3.81
3.74
3.84
4.04
4.24
4.36
4.43
4.48
4.6
4.84
5.16
5.53
5.89
6.2
6.46
6.63
6.66
6.44
5.83
4.74
3.27
1.66
0.26
-0.61
-0.85
-0.56
0.03
0.65
1.14
1.55
1.95
2.4
2.8
3
2.89
2.44
1.85
1.38
1.24
1.43
1.79
2.09
2.1
1.75
1.11
0.28
-0.66
-1.69
-2.83
-4
-5.05
-5.8
-6.06
-5.84
-5.28
-4.62
-4.07
-3.75
-3.59
-3.42
-3.06
-2.36
-1.33
-0.07
1.23
2.35
3.15
3.58
3.68
3.55
3.25
2.86
2.37
1.77
1.02
0.08
-1.02
-2.2
-3.24
-3.92
-4.06
-3.65
-2.88
-2.11
-1.64
-1.55
-1.74
-1.97
-2.05
-2.04
-2.15
-2.62
-3.55
-4.79
-6.01
-6.93
-7.45
-7.75
-8.18
-9.05
-10.41
-11.99
-13.32
-13.86
-13.34
-11.84
-9.8
-7.99
-7.19
-8.11
-11.02
-15.79
-21.78
-27.99
-33.2
-36.36
-36.97
-35.29
-32.41
-29.9
-29.35
-31.51
-35.93
-40.64
-42.64
-38.72
-26.54
-5.62
22.13
52.72
81.16
102.78
114.73
116.6
110.21
98.78
85.71
73.63
64.01
57.19
52.78
49.99
47.89
45.52
42.12
37.32
31.47
25.57
21.02
18.91
19.47
21.82
23.95
23.49
18.47
8.05
-6.99
-24.46
-41.35
-54.84
-63.12
-66.02
-64.81
-61.56
-58.28
-56.19
-55.51
-55.74
-56.09
-55.98
-55.11
-53.35
-50.59
-46.63
-41.27
-34.51
-26.69
-18.43
-10.48
-3.55
2.01
6.24
9.51
12.38
15.3
18.42
21.52
24.16
25.91
26.58
26.36
25.69
25.06
24.76
24.65
24.28
23.13
20.91
17.73
14.06
10.53
7.62
5.46
3.91
2.74
1.82
1.22
1.09
1.54
2.51
3.81
5.23
6.69
8.16
9.69
11.25
12.63
13.61
13.9
13.38
12.12
10.43
8.68
7.24
6.24
5.65
5.25
4.81
4.17
3.3
2.18
0.71
-1.26
-3.97
-7.44
-11.41
-15.26
-18.18
-19.51
-19.01
-16.89
-13.7
-10.03
-6.3
-2.65
0.86
4.09
6.7
8.27
8.56
7.7
6.14
4.39
2.82
1.53
0.4
-0.69
-1.67
-2.34
-2.4
-1.56
0.35
3.37
7.3
11.75
16.06
19.49
21.36
21.29
19.32
15.84
11.34
6.21
0.71
-5.01
-10.71
-16.03
-20.45
-23.41
-24.61
-24.04
-22.09
-19.35
-16.51
-14.12
-12.4
-11.34
-10.71
-10.3
-10
-9.8
-9.78
-9.94
-10.18
-10.31
-10.19
-9.82
-9.28
-8.66
-7.96
-7.02
-5.7
-3.93
-1.9
0.04
1.49
2.2
2.17
1.62
0.91
0.33
0.03
-0.01
0.07
0.13
0.1
-0.02
-0.12
-0.14
-0.08
-0.03
-0.04
-0.11
-0.16
-0.02
0.35
0.93
1.52
1.92
1.95
1.56
0.77
-0.33
-1.7
-3.3
-5.02
-6.66
-7.89
-8.38
-7.93
-6.54
-4.51
-2.26
-0.21
1.33
2.24
2.62
2.62
2.4
2.03
1.56
1.06
0.65
0.5
0.7
1.29
2.22
3.44
4.93
6.65
8.54
10.3
11.54
11.77
10.68
8.27
4.89
1.14
-2.33
-4.94
-6.43
-6.74
-6.09
-4.87
-3.55
-2.58
-2.15
-2.17
-2.22
-1.76
-0.38
2.04
5.14
8.28
10.77
12.16
12.42
11.89
11.11
10.49
10.12
9.81
9.18
8.05
6.48
4.85
3.61
3.05
3.18
3.72
4.29
4.64
4.62
4.31
3.74
2.94
1.85
0.47
-1.06
-2.48
-3.44
-3.67
-3.11
-1.91
-0.37
1.13
2.18
2.33
1.17
-1.68
-6.39
-12.77
-20.22
-27.81
-34.43
-39.11
-41.23
-40.65
-37.72
-33.14
-27.8
-22.56
-18.07
-14.62
-12.2
-10.59
-9.48
-8.52
-7.41
-5.85
-3.59
-0.5
3.31
7.46
11.37
14.5
16.5
17.29
17.06
16.12
14.79
13.27
11.72
10.25
8.94
7.83
6.93
6.11
5.2
4.02
2.42
0.47
-1.64
-3.49
-4.62
-4.66
-3.38
-0.91
2.4
6.03
9.41
12.1
13.81
14.47
14.21
13.28
11.99
10.6
9.25
7.98
6.75
5.52
4.35
3.36
2.64
2.21
1.96
1.77
1.63
1.56
1.67
2
2.44
2.84
3.02
2.93
2.64
2.25
1.83
1.36
0.78
0.1
-0.58
-1.1
-1.32
-1.25
-0.99
-0.75
-0.65
-0.69
-0.79
-0.78
-0.56
-0.19
0.17
0.31
0.16
-0.15
-0.31
0.04
1.07
2.69
4.62
6.46
7.92
8.86
9.27
9.2
8.73
7.89
6.76
5.42
4.01
2.6
1.24
-0.16
-1.69
-3.42
-5.43
-7.64
-9.92
-11.98
-13.46
-14.05
-13.54
-11.99
-9.69
-7.05
-4.49
-2.34
-0.75
0.32
0.97
1.35
1.73
2.36
3.47
5.14
7.25
9.45
11.31
12.36
12.37
11.38
9.71
7.86
6.31
5.36
5.07
5.28
5.72
6.07
6.04
5.32
3.65
0.86
-3.03
-7.64
-12.25
-16
-18.22
-18.65
-17.55
-15.62
-13.6
-12.09
-11.33
-11.29
-11.7
-12.27
-12.68
-12.66
-12.01
-10.71
-8.93
-7.01
-5.35
-4.26
-3.83
-3.88
-4.06
-4.02
-3.5
-2.54
-1.38
-0.42
0.08
0.06
-0.24
-0.41
-0.05
1.08
3.01
5.55
8.47
11.45
14.15
16.2
17.31
17.34
16.42
14.93
13.3
11.74
10.13
8.01
4.83
0.29
-5.43
-11.6
-17.17
-21.03
-22.4
-21.08
-17.48
-12.52
-7.37
-3.09
-0.34
0.69
0.31
-0.9
-2.28
-3.28
-3.57
-3.12
-2.05
-0.62
0.91
2.34
3.59
4.64
5.46
6.03
6.36
6.45
6.36
6.17
5.94
5.72
5.49
5.28
5.12
5.09
5.25
5.61
6.11
6.61
6.91
6.8
6.1
4.75
2.85
0.7
-1.31
-2.79
-3.64
-4.04
-4.36
-4.97
-5.97
-7.23
-8.38
-9.13
-9.37
-9.24
-8.98
-8.74
-8.57
-8.32
-7.86
-7.15
-6.3
-5.54
-5.05
-4.92
-5.1
-5.41
-5.65
-5.66
-5.42
-4.98
-4.46
-3.93
-3.43
-2.95
-2.52
-2.12
-1.78
-1.55
-1.44
-1.44
-1.56
-1.79
-2.03
-2.19
-2.16
-1.95
-1.59
-1.17
-0.73
-0.18
0.61
1.69
2.98
4.22
5.06
5.3
4.93
4.11
3.07
1.93
0.8
-0.28
-1.2
-1.78
-1.9
-1.52
-0.79
0.04
0.67
0.96
0.88
0.56
0.2
-0.07
-0.16
-0.1
-0.01
-0.06
-0.3
-0.7
-1.07
-1.16
-0.8
0.01
1.11
2.27
3.28
4.12
4.81
5.49
6.17
6.74
7.04
6.9
6.31
5.41
4.49
3.76
3.39
3.31
3.36
3.29
2.97
2.39
1.63
0.83
0.03
-0.73
-1.44
-2.03
-2.39
-2.4
-2.07
-1.55
-1.03
-0.68
-0.52
-0.5
-0.52
-0.43
-0.13
0.46
1.38
2.61
3.98
5.22
6
6.09
5.44
4.16
2.52
0.78
-0.83
-2.18
-3.22
-3.97
-4.49
-4.88
-5.16
-5.32
-5.33
-5.19
-5.05
-5.13
-5.58
-6.36
-7.2
-7.69
-7.56
-6.76
-5.61
-4.57
-4.04
-4.2
-4.97
-6.03
-6.98
-7.43
-7.05
-5.66
-3.26
-0.11
3.35
6.65
9.36
11.2
12.1
12.11
11.31
9.86
8
6
4.23
2.96
2.37
2.39
2.79
3.24
3.46
3.3
2.8
2.12
1.48
1.01
0.74
0.61
0.45
0.17
-0.27
-0.84
-1.52
-2.26
-3.07
-3.91
-4.68
-5.29
-5.66
-5.82
-5.88
-5.93
-6.02
-6.03
-5.77
-4.98
-3.55
-1.54
0.71
2.76
4.22
4.91
4.93
4.6
4.22
3.97
3.76
3.35
2.57
1.5
0.5
-0.03
0.21
1.13
2.33
3.27
3.55
3.04
1.94
0.62
-0.53
-1.27
-1.56
-1.53
-1.42
-1.42
-1.64
-1.97
-2.25
-2.34
-2.19
-1.91
-1.65
-1.57
-1.73
-2.15
-2.83
-3.75
-4.83
-5.87
-6.48
-6.3
-5.11
-2.99
-0.3
2.42
4.74
6.38
7.32
7.69
7.64
7.23
6.51
5.48
4.18
2.76
1.42
0.38
-0.19
-0.25
0.06
0.56
1.05
1.36
1.45
1.34
1.08
0.76
0.44
0.17
-0.04
-0.2
-0.4
-0.69
-1.1
-1.54
-1.86
-1.99
-1.89
-1.68
-1.51
-1.52
-1.76
-2.28
-3.1
-4.19
-5.47
-6.69
-7.49
-7.51
-6.59
-4.81
-2.55
-0.27
1.69
3.17
4.22
4.98
5.51
5.85
5.93
5.73
5.23
4.49
3.63
2.76
2.01
1.47
1.16
1.1
1.19
1.34
1.46
1.51
1.48
1.39
1.2
0.9
0.45
-0.15
-0.84
-1.48
-1.99
-2.31
-2.44
-2.51
-2.67
-2.99
-3.51
-4.14
-4.75
-5.23
-5.51
-5.55
-5.32
-4.73
-3.68
-2.13
-0.16
2.01
4.07
5.78
6.94
7.54
7.59
7.17
6.37
5.31
4.22
3.33
2.86
2.87
3.25
3.79
4.25
4.45
4.31
3.8
2.98
1.94
0.84
-0.18
-0.98
-1.54
-1.88
-2.13
-2.36
-2.58
-2.75
-2.84
-2.88
-2.9
-2.92
-2.89
-2.74
-2.49
-2.26
-2.27
-2.69
-3.56
-4.71
-5.79
-6.43
-6.36
-5.52
-4.06
-2.28
-0.5
0.97
1.91
2.21
1.83
0.78
-0.94
-3.25
-6.02
-8.93
-11.58
-13.53
-14.51
-14.48
-13.65
-12.45
-11.23
-10.22
-9.35
-8.43
-7.28
-5.81
-4.2
-2.78
-1.85
-1.53
-1.73
-2.13
-2.36
-2.23
-1.69
-0.92
-0.1
0.58
1.09
1.49
1.9
2.47
3.3
4.5
6.1
8.03
10.11
12.06
13.56
14.35
14.34
13.59
12.38
10.99
9.67
8.61
7.84
7.37
7.1
6.93
6.72
6.34
5.75
4.98
4.2
3.58
3.26
3.18
3.18
3.02
2.52
1.67
0.62
-0.37
-1.1
-1.47
-1.54
-1.45
-1.34
-1.33
-1.49
-1.83
-2.28
-2.71
-2.94
-2.83
-2.33
-1.53
-0.63
0.28
1.09
1.82
2.48
3.04
3.38
3.39
3.04
2.42
1.77
1.26
1.02
1.04
1.15
1.24
1.17
0.9
0.44
-0.1
-0.64
-1.06
-1.28
-1.27
-1.03
-0.63
-0.21
0.07
0.08
-0.27
-0.97
-1.89
-2.83
-3.54
-3.85
-3.64
-2.93
-1.78
-0.37
1.15
2.63
3.95
5.03
5.83
6.26
6.24
5.69
4.65
3.23
1.68
0.3
-0.67
-1.1
-1.04
-0.65
-0.18
0.12
0.05
-0.5
-1.52
-2.81
-4.09
-5.03
-5.43
-5.29
-4.79
-4.18
-3.66
-3.32
-3.07
-2.75
-2.2
-1.31
-0.11
1.29
2.71
3.97
4.98
5.7
6.18
6.42
6.36
5.85
4.76
3.06
0.98
-1.06
-2.61
-3.33
-3.18
-2.37
-1.28
-0.32
0.26
0.41
0.18
-0.28
-0.83
-1.41
-1.96
-2.45
-2.84
-3.12
-3.3
-3.47
-3.81
-4.41
-5.25
-6.12
-6.6
-6.28
-4.87
-2.39
0.8
4.13
6.99
8.91
9.74
9.59
8.8
7.67
6.42
5.1
3.65
2.02
0.27
-1.36
-2.6
-3.27
-3.37
-3.09
-2.71
-2.49
-2.5
-2.7
-2.98
-3.26
-3.58
-3.99
-4.47
-4.96
-5.29
-5.33
-5.05
-4.57
-4.14
-4.04
-4.42
-5.27
-6.33
-7.15
-7.22
-6.14
-3.79
-0.42
3.45
7.13
10.02
11.72
12.12
11.42
9.97
8.12
6.15
4.21
2.38
0.74
-0.58
-1.4
-1.53
-0.98
0.07
1.24
2.11
2.37
1.95
1.02
-0.12
-1.24
-2.17
-2.91
-3.54
-4.1
-4.56
-4.82
-4.75
-4.28
-3.5
-2.59
-1.79
-1.31
-1.24
-1.63
-2.46
-3.7
-5.27
-6.92
-8.29
-8.92
-8.44
-6.76
-4.12
-1.07
1.81
4.05
5.49
6.23
6.55
6.74
7.04
7.45
7.92
8.26
8.37
8.23
7.91
7.48
7.01
6.51
5.92
5.24
4.44
3.5
2.37
1
-0.6
-2.32
-3.84
-4.85
-5.15
-4.78
-4.04
-3.33
-2.93
-2.86
-2.93
-2.89
-2.62
-2.16
-1.7
-1.45
-1.54
-2
-2.77
-3.8
-4.96
-6.08
-6.87
-6.98
-6.09
-4.05
-1.03
2.57
6.12
9.07
10.99
11.79
11.58
10.62
9.22
7.6
5.93
4.38
3.11
2.28
1.98
2.12
2.45
2.64
2.43
1.74
0.73
-0.35
-1.2
-1.68
-1.82
-1.81
-1.83
-1.99
-2.27
-2.54
-2.63
-2.51
-2.22
-1.96
-1.85
-1.94
-2.13
-2.2
-2
-1.53
-0.99
-0.65
-0.8
-1.56
-2.84
-4.42
-6.01
-7.25
-7.84
-7.48
-6
-3.45
-0.07
3.62
7
9.5
10.8
10.87
9.96
8.52
6.94
5.52
4.36
3.46
2.76
2.27
2.01
1.97
2.06
2.07
1.8
1.12
0.1
-1.01
-1.91
-2.42
-2.52
-2.35
-2.15
-2.18
-2.54
-3.21
-4.03
-4.76
-5.19
-5.2
-4.88
-4.42
-4.02
-3.72
-3.39
-2.85
-1.97
-0.86
0.12
0.59
0.35
-0.48
-1.53
-2.31
-2.46
-1.91
-0.76
0.71
2.26
3.69
4.92
5.85
6.42
6.56
6.21
5.37
4.07
2.48
0.82
-0.61
-1.55
-1.82
-1.46
-0.71
0.08
0.51
0.41
-0.21
-1.05
-1.71
-1.92
-1.64
-1.15
-0.76
-0.8
-1.32
-2.2
-3.2
-4.12
-4.87
-5.44
-5.8
-5.92
-5.76
-5.34
-4.79
-4.34
-4.18
-4.42
-4.95
-5.51
-5.71
-5.2
-3.79
-1.51
1.33
4.24
6.71
8.4
9.21
9.29
8.88
8.24
7.47
6.54
5.44
4.19
2.89
1.73
0.82
0.22
-0.14
-0.4
-0.73
-1.14
-1.61
-1.96
-2.05
-1.78
-1.22
-0.54
0
0.27
0.23
0
-0.27
-0.43
-0.41
-0.18
0.22
0.7
1.07
1.09
0.57
-0.54
-2.02
-3.46
-4.4
-4.57
-3.93
-2.75
-1.35
0.01
1.18
2.14
2.79
3.06
2.84
2.14
1.12
-0.01
-0.94
-1.48
-1.54
-1.18
-0.51
0.31
1.15
1.85
2.36
2.65
2.75
2.69
2.56
2.45
2.39
2.32
2.19
1.87
1.32
0.59
-0.11
-0.62
-0.86
-0.87
-0.87
-1.06
-1.52
-2.13
-2.71
-3
-2.84
-2.19
-1.11
0.25
1.66
2.91
3.84
4.33
4.42
4.18
3.67
2.92
1.98
0.9
-0.21
-1.17
-1.8
-2.05
-1.96
-1.7
-1.42
-1.22
-1.23
-1.43
-1.8
-2.26
-2.6
-2.63
-2.23
-1.39
-0.31
0.75
1.58
2.07
2.21
2.01
1.39
0.21
-1.57
-3.83
-6.14
-7.85
-8.37
-7.42
-5.2
-2.27
0.6
2.85
4.21
4.76
4.78
4.54
4.23
3.97
3.85
3.98
4.42
5.13
5.87
6.27
5.92
4.62
2.37
-0.57
-3.78
-6.85
-9.46
-11.4
-12.59
-13.08
-12.99
-12.53
-11.89
-11.25
-10.74
-10.43
-10.33
-10.45
-10.76
-11.14
-11.41
-11.29
-10.53
-8.99
-6.77
-4.15
-1.59
0.49
1.86
2.54
2.79
2.94
3.28
3.92
4.81
5.81
6.76
7.55
8.11
8.42
8.55
8.53
8.45
8.43
8.48
8.53
8.4
7.88
6.84
5.3
3.44
1.53
-0.14
-1.4
-2.14
-2.34
-2.06
-1.43
-0.7
-0.19
-0.23
-0.94
-2.22
-3.69
-4.83
-5.2
-4.59
-3.14
-1.18
0.84
2.57
3.83
4.62
5.01
5.09
4.92
4.59
4.17
3.78
3.53
3.45
3.49
3.59
3.63
3.61
3.51
3.34
3.07
2.64
1.98
1.08
0.03
-1.03
-1.91
-2.48
-2.66
-2.5
-2.12
-1.66
-1.28
-1.07
-1.07
-1.24
-1.42
-1.4
-0.99
-0.08
1.31
3.03
4.9
6.71
8.34
9.73
10.85
11.54
11.63
10.92
9.37
7.17
4.71
2.47
0.77
-0.27
-0.78
-1.01
-1.16
-1.3
-1.38
-1.31
-1.1
-0.87
-0.73
-0.81
-1.12
-1.59
-2.11
-2.62
-3.03
-3.33
-3.49
-3.52
-3.43
-3.29
-3.19
-3.23
-3.47
-3.87
-4.32
-4.62
-4.6
-4.16
-3.33
-2.35
-1.46
-0.87
-0.61
-0.58
-0.61
-0.54
-0.36
-0.12
0.14
0.43
0.87
1.55
2.49
3.54
4.47
5.04
5.15
4.81
4.19
3.48
2.79
2.11
1.35
0.43
-0.63
-1.67
-2.41
-2.65
-2.32
-1.54
-0.58
0.27
0.79
0.89
0.6
0.01
-0.71
-1.4
-1.82
-1.79
-1.24
-0.33
0.55
0.95
0.52
-0.84
-2.92
-5.33
-7.68
-9.71
-11.31
-12.48
-13.25
-13.61
-13.59
-13.25
-12.75
-12.32
-12.08
-12.04
-11.98
-11.57
-10.49
-8.66
-6.29
-3.79
-1.62
-0.08
0.8
1.26
1.58
1.95
2.35
2.63
2.62
2.2
1.46
0.59
-0.18
-0.58
-0.43
0.44
2.09
4.5
7.51
10.74
13.74
16.02
17.25
17.28
16.23
14.37
12.06
9.62
7.34
5.43
4.05
3.31
3.24
3.73
4.56
5.45
6.16
6.56
6.71
6.76
6.9
7.2
7.56
7.78
7.6
6.89
5.65
4.09
2.44
0.95
-0.29
-1.31
-2.24
-3.22
-4.34
-5.6
-6.94
-8.31
-9.6
-10.72
-11.44
-11.54
-10.79
-9.15
-6.77
-4
-1.26
1.06
2.73
3.74
4.24
4.41
4.4
4.19
3.76
3.02
2.04
1.02
0.2
-0.22
-0.22
0.07
0.38
0.55
0.56
0.53
0.62
0.87
1.17
1.31
1.13
0.6
-0.12
-0.76
-1.04
-0.76
0.07
1.25
2.4
3.12
3.04
2
0.07
-2.46
-5.13
-7.45
-8.93
-9.29
-8.36
-6.26
-3.36
-0.14
2.86
5.26
6.84
7.62
7.75
7.44
6.9
6.33
5.89
5.67
5.67
5.71
5.58
5.05
3.97
2.42
0.59
-1.24
-2.81
-3.98
-4.73
-5.16
-5.38
-5.51
-5.61
-5.69
-5.71
-5.68
-5.63
-5.63
-5.7
-5.85
-6.04
-6.19
-6.23
-6.08
-5.66
-4.89
-3.7
-2.1
-0.26
1.47
2.76
3.42
3.47
3.2
2.95
2.95
3.17
3.41
3.44
3.14
2.62
2.17
2.05
2.38
3.01
3.61
3.84
3.51
2.72
1.72
0.86
0.3
0.03
-0.12
-0.37
-0.81
-1.4
-2.03
-2.61
-3.17
-3.77
-4.48
-5.29
-6.05
-6.55
-6.64
-6.18
-5.15
-3.59
-1.67
0.38
2.26
3.7
4.56
4.89
4.83
4.55
4.2
3.81
3.38
2.95
2.61
2.49
2.63
3.02
3.5
3.92
4.16
4.15
3.93
3.52
2.92
2.13
1.14
0.06
-0.96
-1.71
-2.06
-1.98
-1.68
-1.41
-1.45
-1.98
-2.95
-4.17
-5.34
-6.14
-6.33
-5.77
-4.42
-2.39
0.07
2.54
4.62
5.98
6.52
6.31
5.6
4.67
3.72
2.91
2.3
1.9
1.62
1.39
1.1
0.7
0.25
-0.14
-0.36
-0.43
-0.47
-0.69
-1.22
-2.07
-3.01
-3.79
-4.22
-4.24
-3.99
-3.68
-3.53
-3.62
-3.9
-4.21
-4.37
-4.27
-3.88
-3.24
-2.43
-1.46
-0.37
0.88
2.21
3.52
4.6
5.29
5.48
5.15
4.41
3.44
2.43
1.56
0.98
0.73
0.76
0.95
1.14
1.21
1.06
0.67
0.07
-0.67
-1.49
-2.34
-3.12
-3.83
-4.43
-4.87
-5.12
-5.13
-4.85
-4.3
-3.62
-3.04
-2.8
-3.03
-3.65
-4.34
-4.68
-4.33
-3.13
-1.22
1.07
3.36
5.35
6.84
7.74
8.05
7.79
7.04
5.95
4.75
3.69
2.96
2.58
2.43
2.34
2.16
1.83
1.38
0.88
0.38
-0.19
-0.89
-1.79
-2.83
-3.94
-4.99
-5.88
-6.52
-6.8
-6.67
-6.05
-5.04
-3.85
-2.84
-2.33
-2.54
-3.44
-4.71
-5.86
-6.33
-5.74
-3.97
-1.26
1.93
5.04
7.54
9.18
9.89
9.81
9.16
8.13
6.87
5.6
4.48
3.69
3.37
3.48
3.83
4.11
4.01
3.32
2.02
0.33
-1.39
-2.73
-3.46
-3.57
-3.34
-3.19
-3.48
-4.31
-5.45
-6.44
-6.81
-6.34
-5.16
-3.7
-2.5
-1.98
-2.28
-3.25
-4.48
-5.5
-5.87
-5.31
-3.81
-1.57
1.05
3.64
5.84
7.42
8.36
8.73
8.69
8.32
7.7
6.8
5.65
4.3
2.93
1.74
0.94
0.64
0.79
1.17
1.51
1.63
1.49
1.23
1.05
1.12
1.46
1.9
2.2
2.07
1.37
0.15
-1.37
-2.87
-4.07
-4.8
-5.06
-5
-4.87
-4.86
-5.13
-5.75
-6.64
-7.65
-8.5
-8.84
-8.38
-6.98
-4.72
-1.91
0.98
3.51
5.36
6.42
6.76
6.6
6.14
5.58
5.01
4.45
3.92
3.46
3.15
3.07
3.22
3.48
3.63
3.48
2.95
2.16
1.35
0.69
0.26
-0.1
-0.55
-1.25
-2.15
-3.06
-3.81
-4.19
-4.17
-3.73
-2.97
-2.06
-1.25
-0.85
-1.13
-2.19
-3.88
-5.84
-7.57
-8.66
-8.87
-8.16
-6.68
-4.61
-2.21
0.27
2.58
4.48
5.82
6.57
6.77
6.53
6.02
5.3
4.49
3.69
3.04
2.65
2.55
2.66
2.81
2.85
2.68
2.38
2.07
1.86
1.76
1.63
1.36
0.86
0.18
-0.56
-1.2
-1.72
-2.09
-2.37
-2.58
-2.74
-2.9
-3.12
-3.54
-4.16
-4.97
-5.8
-6.37
-6.37
-5.63
-4.19
-2.23
-0.1
1.93
3.63
4.97
5.97
6.66
7.03
6.98
6.48
5.57
4.4
3.17
2.06
1.14
0.33
-0.47
-1.36
-2.3
-3.21
-3.94
-4.39
-4.57
-4.5
-4.31
-4.06
-3.81
-3.5
-3.09
-2.5
-1.76
-0.98
-0.33
-0.03
-0.2
-0.86
-1.92
-3.21
-4.57
-5.86
-6.94
-7.67
-7.93
-7.56
-6.51
-4.88
-2.9
-0.95
0.64
1.62
1.91
1.53
0.62
-0.72
-2.34
-4.02
-5.48
-6.41
-6.53
-5.73
-4.15
-2.09
-0.03
1.63
2.67
3.03
2.88
2.44
1.9
1.39
0.88
0.36
-0.21
-0.79
-1.33
-1.76
-1.97
-1.95
-1.77
-1.55
-1.44
-1.56
-1.96
-2.55
-3.16
-3.54
-3.49
-2.87
-1.68
0
2.05
4.3
6.57
8.7
10.48
11.71
12.29
12.23
11.68
10.84
10
9.37
9.06
9.06
9.24
9.45
9.53
9.34
8.85
8.1
7.16
6.15
5.18
4.3
3.47
2.67
1.85
1.02
0.24
-0.37
-0.72
-0.79
-0.69
-0.62
-0.89
-1.7
-3.1
-4.88
-6.61
-7.79
-8.06
-7.35
-5.88
-4.01
-2.09
-0.23
1.64
3.68
5.9
8.06
9.72
10.44
10.01
8.54
6.41
4.11
1.99
0.18
-1.44
-3.01
-4.63
-6.2
-7.47
-8.22
-8.35
-7.98
-7.26
-6.33
-5.23
-3.89
-2.23
-0.4
1.33
2.57
3.02
2.64
1.62
0.37
-0.68
-1.18
-0.98
-0.07
1.44
3.33
5.44
7.61
9.75
11.77
13.52
14.71
15.06
14.31
12.41
9.6
6.33
3.17
0.64
-0.96
-1.62
-1.58
-1.24
-1.04
-1.25
-1.98
-3.21
-4.85
-6.73
-8.7
-10.57
-12.11
-13.13
-13.55
-13.46
-13.11
-12.7
-12.36
-12.05
-11.61
-10.87
-9.7
-8.06
-5.98
-3.63
-1.22
0.93
2.52
3.34
3.35
2.69
1.56
0.15
-1.37
-2.91
-4.35
-5.55
-6.47
-7.15
-7.77
-8.56
-9.7
-11.22
-13
-14.84
-16.6
-18.28
-20.01
-22.05
-24.62
-27.82
-31.48
-35.25
-38.66
-41.21
-42.62
-42.76
-41.77
-39.99
-37.92
-36.2
-35.47
-36.19
-38.39
-41.5
-44.37
-45.66
-44.25
-39.58
-31.78
-21.5
-9.6
3.02
15.62
27.51
38.09
46.85
53.58
58.36
61.56
63.69
65.16
66.17
66.74
66.68
65.71
63.55
60.02
55.3
50.1
45.61
43.26
44.24
49.04
57.13
67.16
77.3
85.82
91.46
93.7
92.5
88.13
80.95
71.47
60.32
48.37
36.58
25.67
15.81
6.5
-3.22
-14.26
-26.87
-40.39
-53.33
-63.85
-70.51
-72.65
-70.63
-65.52
-58.66
-51.26
-44.16
-37.88
-32.82
-29.43
-28.16
-29.18
-32.11
-35.9
-39.04
-40.13
-38.38
-33.98
-27.96
-21.76
-16.63
-13.22
-11.52
-11.1
-11.45
-12.15
-13.01
-13.94
-14.75
-15.11
-14.62
-12.93
-9.97
-6.02
-1.68
2.34
5.43
7.3
7.98
7.77
7.05
6.18
5.41
4.91
4.82
5.2
5.97
6.84
7.36
7.2
6.41
5.54
5.5
7.29
11.44
17.79
25.41
32.87
38.66
41.6
41.13
37.36
31
23.07
14.77
7.13
0.82
-3.92
-7.27
-9.72
-11.76
-13.72
-15.75
-17.74
-19.61
-21.35
-23.06
-24.85
-26.7
-28.38
-29.5
-29.74
-29.02
-27.53
-25.66
-23.8
-22.21
-20.96
-20.1
-19.54
-19.24
-18.96
-18.31
-16.68
-13.48
-8.36
-1.43
6.77
15.26
23.03
29.25
33.41
35.39
35.32
33.42
30.1
25.94
21.79
18.65
17.49
18.75
22.04
26.03
28.78
28.44
23.99
15.72
5.21
-5.25
-13.48
-18.1
-18.8
-16.25
-11.59
-6.03
-0.48
4.45
8.42
11.18
12.55
12.55
11.39
9.54
7.62
6.28
6
6.96
8.99
11.67
14.5
17.04
19.06
20.48
21.24
21.22
20.15
17.83
14.3
9.97
5.62
2.1
0.02
-0.57
-0.13
0.52
0.65
-0.12
-1.68
-3.61
-5.5
-7.14
-8.59
-10.02
-11.45
-12.73
-13.56
-13.69
-13.16
-12.26
-11.42
-10.99
-11.15
-11.85
-12.97
-14.42
-16.13
-18
-19.87
-21.46
-22.42
-22.49
-21.5
-19.4
-16.31
-12.45
-8.22
-4.1
-0.52
2.33
4.61
6.82
9.52
13.08
17.39
22
26.36
30.26
33.99
38.24
43.66
50.43
58.09
65.74
72.58
78.25
83.1
87.73
92.7
98.21
104.2
110.59
117.35
124.16
129.94
132.57
129.29
117.67
96.73
67.54
32.95
-3.5
-38.68
-70.5
-97.91
-120.32
-137.15
-147.73
-151.61
-148.92
-140.52
-127.72
-111.93
-94.46
-76.53
-59.39
-44.44
-32.98
-25.82
-22.74
-22.4
-22.61
-21.19
-16.78
-9.33
-0.06
9.21
16.78
21.65
23.52
22.54
19.08
13.59
6.83
-0.13
-5.9
-9.39
-10.22
-9.11
-7.54
-7.12
-8.8
-12.41
-16.85
-20.68
-22.85
-23
-21.49
-18.96
-15.93
-12.69
-9.39
-6.32
-3.95
-2.83
-3.28
-5.2
-8.11
-11.34
-14.41
-17.08
-19.29
-21
-22.01
-22.12
-21.21
-19.49
-17.43
-15.58
-14.22
-13.32
-12.54
-11.56
-10.27
-8.86
-7.63
-6.8
-6.32
-5.96
-5.48
-4.8
-4.11
-3.69
-3.73
-4.11
-4.49
-4.47
-3.83
-2.64
-1.2
0.13
1.13
1.78
2.16
2.35
2.39
2.17
1.58
0.6
-0.66
-2.01
-3.22
-4.14
-4.8
-5.28
-5.7
-6.09
-6.38
-6.42
-6.09
-5.44
-4.61
-3.88
-3.43
-3.34
-3.54
-3.95
-4.5
-5.19
-5.99
-6.73
-7.14
-6.99
-6.21
-5.05
-3.96
-3.42
-3.67
-4.58
-5.72
-6.55
-6.59
-5.75
-4.21
-2.34
-0.5
1.01
1.98
2.35
2.12
1.39
0.39
-0.49
-0.84
-0.4
0.84
2.56
4.19
5.2
5.3
4.51
3.12
1.51
-0.04
-1.4
-2.53
-3.34
-3.78
-3.78
-3.44
-2.98
-2.77
-3.04
-3.79
-4.77
-5.57
-5.93
-5.77
-5.24
-4.61
-4.05
-3.58
-3.05
-2.23
-0.91
0.88
3.03
5.24
7.22
8.72
9.61
9.85
9.48
8.58
7.27
5.73
4.17
2.81
1.8
1.17
0.84
0.61
0.33
-0.06
-0.56
-1.11
-1.65
-2.2
-2.74
-3.34
-3.94
-4.54
-5.11
-5.65
-6.21
-6.77
-7.27
-7.57
-7.49
-6.81
-5.45
-3.51
-1.31
0.76
2.32
3.15
3.28
2.88
2.24
1.52
0.76
-0.09
-1.02
-1.96
-2.65
-2.86
-2.43
-1.39
0.08
1.64
3.01
4.01
4.65
5.01
5.23
5.34
5.27
4.9
4.16
3.12
1.9
0.71
-0.27
-0.94
-1.27
-1.31
-1.08
-0.74
-0.39
-0.2
-0.24
-0.54
-0.97
-1.43
-1.82
-2.17
-2.58
-3.06
-3.63
-4.19
-4.61
-4.82
-4.75
-4.43
-3.82
-2.95
-1.79
-0.46
0.91
2.07
2.79
2.94
2.52
1.75
0.86
0.15
-0.23
-0.31
-0.22
-0.16
-0.27
-0.6
-0.99
-1.26
-1.18
-0.67
0.23
1.35
2.51
3.56
4.44
5.12
5.53
5.56
5.06
3.99
2.45
0.68
-0.98
-2.28
-3.03
-3.25
-3.05
-2.63
-2.17
-1.81
-1.67
-1.75
-2
-2.3
-2.47
-2.44
-2.22
-1.98
-1.88
-2.04
-2.46
-3
-3.49
-3.82
-3.91
-3.79
-3.42
-2.77
-1.73
-0.31
1.35
2.96
4.25
5.01
5.21
4.97
4.41
3.66
2.77
1.77
0.82
0.11
-0.12
0.19
0.97
1.93
2.69
2.96
2.64
1.82
0.7
-0.49
-1.61
-2.58
-3.35
-3.9
-4.24
-4.41
-4.51
-4.63
-4.81
-4.99
-5.05
-4.92
-4.56
-4
-3.24
-2.22
-0.82
0.99
3.05
5.07
6.65
7.54
7.69
7.21
6.36
5.33
4.28
3.24
2.27
1.4
0.72
0.29
0.12
0.15
0.31
0.46
0.48
0.34
0.02
-0.42
-0.88
-1.22
-1.35
-1.25
-0.93
-0.5
-0.04
0.27
0.33
0.04
-0.6
-1.51
-2.53
-3.47
-4.12
-4.29
-3.91
-2.98
-1.7
-0.34
0.79
1.46
1.56
1.12
0.35
-0.51
-1.16
-1.4
-1.22
-0.75
-0.27
-0.02
-0.13
-0.49
-0.85
-1.05
-1.04
-0.95
-0.99
-1.25
-1.61
-1.86
-1.81
-1.44
-0.91
-0.39
0.02
0.35
0.74
1.2
1.61
1.72
1.29
0.33
-0.95
-2.08
-2.58
-2.16
-0.88
0.91
2.67
3.97
4.65
4.84
4.91
5.25
6.07
7.25
8.46
9.27
9.31
8.42
6.63
4.17
1.37
-1.43
-3.92
-5.86
-7.02
-7.33
-6.74
-5.38
-3.52
-1.57
0.1
1.18
1.56
1.38
0.9
0.45
0.3
0.61
1.39
2.51
3.72
4.74
5.26
5.16
4.51
3.62
2.96
2.93
3.72
5.12
6.71
7.97
8.5
8.22
7.25
5.86
4.28
2.63
0.87
-0.96
-2.81
-4.55
-5.96
-6.96
-7.62
-8.06
-8.41
-8.66
-8.63
-8.14
-7.16
-5.85
-4.54
-3.5
-2.83
-2.38
-1.87
-1.08
0.01
1.22
2.29
3.01
3.34
3.35
3.12
2.72
2.19
1.57
0.97
0.54
0.36
0.53
1.01
1.66
2.29
2.78
3.04
3.1
3.03
2.92
2.83
2.82
2.86
2.95
3.03
3.04
2.87
2.49
1.88
1.12
0.37
-0.22
-0.62
-0.89
-1.17
-1.59
-2.15
-2.82
-3.46
-4
-4.4
-4.7
-4.92
-5.03
-5.03
-4.9
-4.7
-4.49
-4.31
-4.16
-3.96
-3.59
-2.97
-2.06
-0.89
0.44
1.82
3.12
4.17
4.87
5.1
4.9
4.31
3.53
2.72
2.01
1.48
1.13
0.92
0.79
0.68
0.58
0.5
0.45
0.42
0.4
0.33
0.16
-0.12
-0.5
-0.92
-1.29
-1.5
-1.45
-1.01
-0.12
1.19
2.81
4.54
6.13
7.28
7.81
7.61
6.76
5.44
3.88
2.29
0.74
-0.74
-2.19
-3.49
-4.52
-5.06
-5.01
-4.43
-3.58
-2.69
-1.97
-1.52
-1.25
-1.06
-0.83
-0.52
-0.12
0.38
0.94
1.52
1.99
2.26
2.21
1.84
1.26
0.63
0.16
-0.03
0.11
0.49
0.96
1.31
1.42
1.24
0.78
0.09
-0.77
-1.71
-2.68
-3.55
-4.16
-4.42
-4.24
-3.63
-2.75
-1.77
-0.89
-0.26
0.09
0.19
0.14
0.03
-0.05
-0.04
0.06
0.29
0.61
0.97
1.3
1.49
1.48
1.2
0.66
-0.09
-0.93
-1.7
-2.23
-2.36
-2.01
-1.2
-0.07
1.17
2.36
3.34
4.09
4.62
4.96
5.08
4.99
4.66
4.16
3.65
3.2
2.92
2.79
2.76
2.74
2.68
2.5
2.16
1.6
0.82
-0.11
-1.07
-1.91
-2.53
-2.9
-3.05
-3.07
-2.99
-2.87
-2.68
-2.46
-2.22
-1.99
-1.79
-1.58
-1.38
-1.19
-1.13
-1.27
-1.71
-2.46
-3.38
-4.23
-4.72
-4.56
-3.63
-2.05
-0.11
1.81
3.35
4.29
4.63
4.5
4.08
3.57
3.09
2.69
2.38
2.1
1.84
1.58
1.36
1.24
1.25
1.36
1.53
1.7
1.88
2.12
2.47
2.91
3.32
3.53
3.4
2.96
2.33
1.67
1.1
0.64
0.21
-0.27
-0.88
-1.65
-2.6
-3.71
-4.9
-6.01
-6.78
-6.99
-6.48
-5.32
-3.69
-1.85
-0.09
1.44
2.6
3.35
3.66
3.56
3.12
2.45
1.76
1.21
0.98
1.11
1.53
2.07
2.52
2.7
2.52
2.05
1.36
0.61
-0.1
-0.69
-1.11
-1.37
-1.47
-1.49
-1.52
-1.64
-1.88
-2.19
-2.5
-2.74
-2.82
-2.68
-2.29
-1.65
-0.89
-0.19
0.28
0.45
0.48
0.63
1.14
2.07
3.24
4.29
4.91
4.95
4.5
3.76
2.93
2.13
1.35
0.6
-0.11
-0.71
-1.05
-1.06
-0.71
-0.14
0.46
0.83
0.85
0.5
-0.08
-0.66
-1.04
-1.21
-1.21
-1.2
-1.22
-1.22
-1.11
-0.82
-0.44
-0.15
-0.06
-0.18
-0.34
-0.4
-0.25
0.05
0.36
0.56
0.63
0.68
0.85
1.23
1.74
2.25
2.57
2.59
2.3
1.76
1.17
0.59
0.07
-0.39
-0.83
-1.2
-1.43
-1.4
-1.17
-0.9
-0.85
-1.17
-1.87
-2.77
-3.55
-3.99
-3.96
-3.59
-3.05
-2.54
-2.16
-1.91
-1.74
-1.61
-1.5
-1.37
-1.15
-0.72
-0.01
0.91
1.89
2.63
2.96
2.86
2.55
2.35
2.52
3.11
3.92
4.68
5.12
5.17
4.88
4.33
3.59
2.68
1.62
0.51
-0.48
-1.24
-1.75
-2.07
-2.31
-2.57
-2.84
-3.04
-3.11
-2.96
-2.59
-2.06
-1.42
-0.81
-0.33
-0.05
-0.02
-0.18
-0.46
-0.76
-1
-1.11
-1.13
-1.1
-1.12
-1.31
-1.67
-2.1
-2.42
-2.44
-2.05
-1.36
-0.54
0.18
0.71
1.06
1.33
1.62
1.94
2.3
2.68
3.08
3.49
3.89
4.17
4.27
4.15
3.82
3.4
2.96
2.52
2.01
1.34
0.46
-0.6
-1.67
-2.51
-2.92
-2.78
-2.1
-1.07
0.05
1.07
1.87
2.46
2.91
3.25
3.43
3.34
2.9
2.14
1.28
0.56
0.23
0.34
0.76
1.22
1.47
1.35
0.9
0.3
-0.25
-0.64
-0.82
-0.88
-0.87
-0.85
-0.82
-0.75
-0.67
-0.64
-0.76
-1.04
-1.49
-1.99
-2.37
-2.55
-2.49
-2.24
-1.89
-1.51
-1.15
-0.78
-0.37
0.08
0.54
0.95
1.18
1.23
1.13
1.02
1.03
1.21
1.57
2.04
2.52
2.92
3.18
3.2
2.93
2.37
1.57
0.69
-0.19
-0.92
-1.49
-1.88
-2.12
-2.2
-2.12
-1.94
-1.79
-1.85
-2.14
-2.57
-2.93
-3.03
-2.83
-2.43
-2.02
-1.7
-1.5
-1.28
-0.94
-0.41
0.24
0.9
1.56
2.18
2.85
3.54
4.22
4.75
5.04
5.07
4.88
4.59
4.3
4.04
3.75
3.36
2.7
1.7
0.46
-0.84
-1.94
-2.67
-2.95
-2.81
-2.34
-1.62
-0.77
0.08
0.8
1.19
1.08
0.36
-0.92
-2.58
-4.2
-5.31
-5.49
-4.56
-2.65
-0.28
1.82
3.06
3.13
2.2
0.79
-0.53
-1.39
-1.73
-1.75
-1.76
-1.94
-2.37
-2.86
-3.24
-3.36
-3.23
-2.97
-2.8
-2.9
-3.38
-4.21
-5.18
-6.01
-6.45
-6.31
-5.62
-4.56
-3.36
-2.27
-1.52
-1.18
-1.21
-1.48
-1.69
-1.53
-0.63
1.24
4.08
7.53
10.99
13.67
14.98
14.75
13.27
11.21
9.28
7.9
7.07
6.46
5.65
4.51
3.26
2.38
2.29
3.14
4.7
6.42
7.76
8.23
7.6
5.88
3.27
0.19
-2.84
-5.19
-6.3
-5.86
-4.01
-1.31
1.41
3.38
4.19
3.91
3.04
2.18
1.71
1.66
1.76
1.6
0.95
-0.12
-1.31
-2.29
-2.78
-2.66
-1.95
-0.68
1.04
2.95
4.66
5.71
5.63
4.24
1.64
-1.7
-5.17
-8.17
-10.29
-11.3
-11.28
-10.49
-9.27
-8
-7.02
-6.47
-6.33
-6.39
-6.34
-5.87
-4.8
-3.1
-0.94
1.32
3.27
4.51
4.83
4.22
2.92
1.3
-0.32
-1.67
-2.67
-3.33
-3.73
-3.92
-3.98
-4.05
-4.26
-4.69
-5.36
-6.12
-6.8
-7.24
-7.39
-7.37
-7.28
-7.22
-7.2
-7.12
-6.95
-6.62
-6.16
-5.57
-4.84
-3.93
-2.87
-1.71
-0.59
0.5
1.6
2.86
4.34
5.95
7.44
8.49
8.94
8.85
8.42
7.91
7.38
6.81
6.13
5.39
4.72
4.26
4.05
3.97
3.86
3.58
3.08
2.49
1.85
1.24
0.58
-0.16
-0.96
-1.7
-2.24
-2.4
-2.1
-1.32
-0.18
1.14
2.38
3.27
3.7
3.68
3.37
2.98
2.67
2.5
2.48
2.58
2.81
3.27
4.01
5.02
6.16
7.18
7.79
7.82
7.23
6.21
5.05
4.07
3.43
3.21
3.32
3.68
4.19
4.81
5.48
6.11
6.63
7.02
7.34
7.73
8.24
8.81
9.18
9.09
8.3
6.86
5.01
3.04
1.08
-1.01
-3.58
-6.96
-11.19
-15.77
-19.87
-22.51
-23.06
-21.43
-18.13
-13.93
-9.64
-5.83
-2.82
-0.77
0.21
0.08
-1.05
-2.84
-4.66
-5.87
-6
-4.94
-3.01
-0.79
1.07
2.19
2.41
1.92
0.98
-0.13
-1.25
-2.33
-3.32
-4.06
-4.37
-4.12
-3.33
-2.25
-1.28
-0.72
-0.65
-0.84
-0.92
-0.56
0.26
1.24
1.97
2.2
1.95
1.44
0.95
0.55
0.12
-0.49
-1.28
-2.07
-2.61
-2.75
-2.63
-2.58
-2.91
-3.72
-4.73
-5.47
-5.5
-4.62
-2.9
-0.66
1.74
4
5.94
7.37
8.13
7.99
6.76
4.5
1.48
-1.69
-4.34
-5.93
-6.23
-5.36
-3.65
-1.48
0.86
3.14
5.16
6.71
7.62
7.81
7.32
6.36
5.14
3.79
2.35
0.82
-0.77
-2.3
-3.57
-4.39
-4.62
-4.28
-3.43
-2.32
-1.2
-0.28
0.32
0.69
0.91
1.12
1.27
1.27
0.98
0.38
-0.38
-1.03
-1.35
-1.2
-0.62
0.3
1.43
2.66
3.86
4.85
5.38
5.29
4.56
3.34
1.87
0.39
-0.95
-2.03
-2.8
-3.22
-3.24
-2.87
-2.15
-1.26
-0.33
0.52
1.23
1.84
2.39
2.92
3.42
3.83
4.05
3.97
3.49
2.56
1.16
-0.61
-2.54
-4.3
-5.54
-6.02
-5.65
-4.67
-3.47
-2.46
-1.92
-1.81
-1.89
-1.87
-1.59
-1.06
-0.44
0.07
0.4
0.6
0.83
1.2
1.71
2.21
2.49
2.39
1.94
1.28
0.67
0.32
0.29
0.52
0.87
1.21
1.49
1.76
2.05
2.33
2.48
2.32
1.76
0.86
-0.21
-1.21
-1.98
-2.41
-2.64
-2.77
-2.89
-3.02
-3.08
-2.99
-2.69
-2.13
-1.31
-0.2
1.2
2.76
4.26
5.36
5.79
5.41
4.33
2.82
1.27
0.02
-0.75
-0.96
-0.7
-0.03
0.95
2.1
3.24
4.15
4.68
4.76
4.5
4.09
3.7
3.42
3.14
2.69
1.93
0.84
-0.46
-1.72
-2.71
-3.26
-3.36
-3.09
-2.58
-1.99
-1.44
-0.93
-0.49
-0.1
0.19
0.27
0.03
-0.56
-1.38
-2.21
-2.82
-3.05
-2.97
-2.72
-2.5
-2.43
-2.5
-2.6
-2.62
-2.46
-2.12
-1.66
-1.16
-0.67
-0.26
0.07
0.28
0.36
0.26
-0.03
-0.52
-1.09
-1.65
-2.05
-2.18
-2.04
-1.67
-1.18
-0.61
-0.01
0.58
1.1
1.49
1.73
1.8
1.77
1.72
1.77
1.98
2.38
2.92
3.51
3.94
4.03
3.6
2.64
1.3
-0.14
-1.34
-2.08
-2.26
-1.95
-1.29
-0.48
0.39
1.25
2.04
2.64
2.9
2.69
1.95
0.8
-0.53
-1.7
-2.54
-3.02
-3.28
-3.45
-3.56
-3.48
-3.06
-2.26
-1.23
-0.29
0.27
0.38
0.17
-0.06
-0.06
0.23
0.68
1.09
1.26
1.16
0.86
0.47
0.05
-0.41
-0.93
-1.57
-2.25
-2.79
-3.04
-2.88
-2.37
-1.63
-0.85
-0.14
0.46
1.03
1.64
2.27
2.91
3.52
4.13
4.77
5.47
6.08
6.39
6.18
5.37
4.15
2.89
1.95
1.54
1.61
1.88
2.05
1.91
1.45
0.81
0.18
-0.29
-0.45
-0.28
0.23
0.99
1.85
2.57
2.9
2.57
1.5
-0.24
-2.4
-4.59
-6.46
-7.68
-8.16
-7.92
-7.12
-5.99
-4.79
-3.76
-3.1
-2.9
-3.04
-3.32
-3.45
-3.19
-2.54
-1.64
-0.72
0.01
0.5
0.77
0.86
0.77
0.49
0.03
-0.43
-0.66
-0.49
0.1
0.91
1.62
2
1.93
1.46
0.69
-0.27
-1.35
-2.44
-3.33
-3.8
-3.64
-2.82
-1.41
0.38
2.4
4.47
6.48
8.24
9.52
10.07
9.8
8.8
7.42
6.08
5.11
4.64
4.6
4.84
5.23
5.68
6.13
6.45
6.53
6.2
5.43
4.32
3.09
1.93
0.95
0.16
-0.58
-1.34
-2.17
-3.01
-3.77
-4.39
-4.77
-4.87
-4.69
-4.31
-3.86
-3.58
-3.64
-4.11
-4.83
-5.45
-5.61
-5.12
-4.05
-2.75
-1.73
-1.36
-1.84
-2.98
-4.37
-5.55
-6.22
-6.37
-6.24
-6.13
-6.17
-6.28
-6.18
-5.58
-4.4
-2.75
-0.84
1.14
3.15
5.18
7.11
8.58
9.09
8.27
6.12
3.15
0.16
-2
-2.85
-2.4
-1.09
0.53
1.94
2.87
3.21
2.97
2.1
0.63
-1.34
-3.54
-5.5
-6.8
-7.19
-6.71
-5.6
-4.15
-2.51
-0.65
1.49
3.77
5.78
6.91
6.65
4.85
1.94
-1.3
-4.06
-5.79
-6.33
-5.89
-4.78
-3.34
-1.83
-0.46
0.59
1.1
1.09
0.65
0.02
-0.49
-0.73
-0.64
-0.3
0.2
0.74
1.24
1.59
1.68
1.45
0.96
0.41
0
-0.14
-0.05
0.1
0.15
0.05
-0.07
-0.02
0.35
0.98
1.7
2.31
2.75
3.08
3.41
3.86
4.38
4.79
4.92
4.66
4.08
3.38
2.75
2.32
2.08
1.89
1.61
1.12
0.42
-0.42
-1.23
-1.87
-2.28
-2.49
-2.63
-2.82
-3.1
-3.42
-3.65
-3.66
-3.39
-2.87
-2.2
-1.47
-0.7
0.14
1.06
2.05
2.98
3.78
4.33
4.6
4.54
4.2
3.61
2.9
2.28
1.94
1.99
2.37
2.88
3.26
3.33
3.04
2.52
1.92
1.37
0.83
0.19
-0.68
-1.81
-3.05
-4.1
-4.66
-4.58
-3.93
-2.99
-2.13
-1.55
-1.21
-0.9
-0.37
0.48
1.5
2.44
3.04
3.23
3.1
2.79
2.37
1.78
1
0.04
-0.91
-1.65
-2.06
-2.15
-2.08
-1.99
-1.95
-1.87
-1.7
-1.45
-1.29
-1.42
-1.84
-2.43
-2.87
-2.94
-2.62
-2.09
-1.62
-1.37
-1.31
-1.26
-1.06
-0.58
0.09
0.84
1.53
2.06
2.37
2.46
2.33
2.03
1.66
1.3
1
0.68
0.31
-0.16
-0.7
-1.19
-1.55
-1.72
-1.78
-1.79
-1.76
-1.62
-1.23
-0.52
0.51
1.68
2.79
3.63
4.09
4.11
3.72
3.01
2.1
1.15
0.36
-0.17
-0.4
-0.45
-0.47
-0.59
-0.85
-1.15
-1.39
-1.49
-1.4
-1.19
-0.97
-0.8
-0.7
-0.65
-0.57
-0.43
-0.15
0.24
0.67
1.05
1.26
1.27
1.11
0.86
0.59
0.36
0.15
-0.04
-0.14
-0.12
0.07
0.37
0.66
0.83
0.84
0.73
0.54
0.35
0.12
-0.14
-0.38
-0.5
-0.37
0.03
0.58
1.04
1.2
0.93
0.3
-0.56
-1.43
-2.17
-2.71
-3.04
-3.11
-2.94
-2.53
-1.94
-1.25
-0.62
-0.17
0.01
-0.03
-0.18
-0.26
-0.14
0.23
0.79
1.46
2.18
2.92
3.67
4.36
4.85
4.97
4.69
4.09
3.41
2.83
2.46
2.26
2.09
1.93
1.82
1.82
1.88
1.88
1.58
0.87
-0.1
-1.01
-1.45
-1.16
-0.16
1.29
2.77
3.83
4.16
3.58
2
-0.54
-3.85
-7.57
-11.18
-14
-15.4
-14.97
-12.63
-8.72
-3.89
1.05
5.33
8.34
9.67
9.19
7.07
3.79
0.03
-3.36
-5.58
-6.15
-4.97
-2.37
1.01
4.4
7.13
8.71
8.87
7.64
5.34
2.48
-0.28
-2.34
-3.32
-3.16
-2.16
-0.81
0.41
1.17
1.38
1.16
0.7
0.15
-0.41
-0.97
-1.45
-1.75
-1.76
-1.45
-0.94
-0.44
-0.15
-0.1
-0.15
-0.1
0.17
0.63
1.09
1.33
1.2
0.69
-0.05
-0.82
-1.4
-1.61
-1.28
-0.38
0.97
2.48
3.67
4.13
3.58
2.07
-0.07
-2.34
-4.25
-5.47
-5.9
-5.61
-4.81
-3.72
-2.55
-1.42
-0.4
0.43
1.02
1.32
1.29
0.96
0.44
-0.1
-0.53
-0.81
-1
-1.21
-1.5
-1.76
-1.88
-1.73
-1.36
-0.93
-0.63
-0.54
-0.6
-0.63
-0.46
-0.05
0.43
0.75
0.73
0.4
-0.02
-0.2
0.13
0.99
2.17
3.3
4.04
4.17
3.68
2.75
1.59
0.41
-0.6
-1.37
-1.83
-1.91
-1.63
-1.04
-0.23
0.65
1.43
1.9
1.89
1.31
0.22
-1.1
-2.27
-2.93
-2.9
-2.24
-1.24
-0.26
0.44
0.77
0.83
0.79
0.75
0.77
0.84
0.95
1.1
1.27
1.47
1.63
1.73
1.74
1.69
1.61
1.55
1.51
1.48
1.43
1.29
1.03
0.64
0.14
-0.46
-1.06
-1.59
-1.99
-2.23
-2.34
-2.37
-2.35
-2.3
-2.22
-2.09
-1.9
-1.72
-1.6
-1.59
-1.67
-1.72
-1.49
-0.82
0.43
2.1
3.92
5.52
6.55
6.85
6.46
5.54
4.35
3.11
2.04
1.28
0.88
0.78
0.84
0.89
0.8
0.49
0.02
-0.56
-1.14
-1.6
-1.85
-1.79
-1.35
-0.61
0.23
1
1.47
1.65
1.65
1.69
1.88
2.25
2.63
2.83
2.73
2.26
1.52
0.65
-0.23
-1.02
-1.66
-2.13
-2.43
-2.54
-2.52
-2.44
-2.42
-2.57
-2.96
-3.5
-4.05
-4.41
-4.49
-4.31
-4.05
-3.87
-3.89
-4.11
-4.4
-4.66
-4.86
-4.99
-5.1
-5.12
-4.97
-4.55
-3.89
-3.1
-2.38
-1.9
-1.67
-1.58
-1.43
-1.08
-0.45
0.37
1.26
2.13
3
3.98
5.2
6.71
8.45
10.15
11.52
12.21
12.02
10.83
8.66
5.7
2.28
-1.06
-3.69
-5.02
-4.74
-2.93
-0.09
3
5.49
6.7
6.35
4.51
1.6
-1.85
-5.25
-8.12
-10.14
-11.16
-11.26
-10.62
-9.56
-8.31
-7.09
-5.94
-4.79
-3.59
-2.27
-0.94
0.27
1.15
1.54
1.47
1
0.31
-0.47
-1.22
-1.86
-2.27
-2.3
-1.79
-0.63
1.16
3.43
5.87
8.14
9.97
11.21
11.75
11.59
10.75
9.3
7.48
5.66
4.23
3.56
3.79
4.78
6.16
7.48
8.33
8.44
7.73
6.18
3.92
1.19
-1.65
-4.11
-5.79
-6.51
-6.39
-5.78
-5.08
-4.53
-4.09
-3.53
-2.66
-1.5
-0.32
0.5
0.68
0.18
-0.8
-2
-3.2
-4.28
-5.14
-5.65
-5.66
-5.06
-3.93
-2.44
-0.77
0.95
2.71
4.53
6.19
7.34
7.49
6.35
4.02
1.01
-1.9
-4.1
-5.3
-5.66
-5.59
-5.48
-5.53
-5.64
-5.64
-5.42
-4.99
-4.43
-3.8
-2.98
-1.79
-0.17
1.76
3.6
4.85
5.14
4.41
2.93
1.19
-0.38
-1.57
-2.34
-2.75
-2.88
-2.71
-2.18
-1.33
-0.29
0.69
1.36
1.56
1.3
0.66
-0.13
-0.92
-1.53
-1.86
-1.83
-1.37
-0.52
0.64
1.88
2.88
3.26
2.67
0.97
-1.76
-5.08
-8.27
-10.49
-11.02
-9.5
-6.15
-1.63
3.09
7.15
9.95
11.29
11.27
10.12
8.14
5.62
2.94
0.56
-1.13
-1.89
-1.8
-1.2
-0.48
0
0.09
-0.24
-0.9
-1.77
-2.7
-3.49
-3.97
-4.02
-3.71
-3.27
-2.97
-3.03
-3.47
-4.12
-4.74
-5.09
-5.06
-4.65
-3.96
-3.06
-2.02
-0.9
0.2
1.13
1.7
1.8
1.42
0.75
0.13
-0.12
0.16
0.94
1.99
3
3.77
4.25
4.53
4.72
4.84
4.82
4.56
3.99
3.15
2.21
1.33
0.67
0.29
0.19
0.27
0.43
0.55
0.54
0.38
0.08
-0.37
-0.96
-1.68
-2.4
-3.02
-3.35
-3.33
-3.02
-2.57
-2.17
-1.9
-1.73
-1.48
-1.01
-0.2
0.93
2.26
3.63
4.91
5.92
6.56
6.81
6.68
6.28
5.67
4.9
4
3.01
2.02
1.19
0.71
0.7
1.13
1.81
2.48
2.9
2.99
2.85
2.67
2.62
2.79
3.14
3.52
3.84
3.97
3.86
3.44
2.77
1.95
1.21
0.89
1.27
2.4
4.06
5.76
7
7.47
7.17
6.33
5.3
4.34
3.61
3.1
2.8
2.7
2.84
3.11
3.34
3.27
2.67
1.49
-0.14
-2.01
-3.92
-5.75
-7.41
-8.82
-9.89
-10.55
-10.81
-10.76
-10.57
-10.36
-10.1
-9.73
-9.16
-8.48
-7.88
-7.55
-7.57
-7.83
-8.14
-8.29
-8.18
-7.81
-7.15
-6.19
-4.85
-3.16
-1.27
0.61
2.31
3.8
5.26
6.82
8.42
9.73
10.18
9.22
6.63
2.61
-2.26
-7.2
-11.48
-14.51
-15.92
-15.61
-13.74
-10.74
-7.23
-3.9
-1.31
0.21
0.65
0.19
-0.89
-2.32
-3.9
-5.44
-6.75
-7.68
-8.17
-8.19
-7.78
-7.05
-6.1
-5.09
-4.19
-3.54
-3.15
-2.86
-2.34
-1.23
0.6
3.06
5.71
8
9.49
10.06
9.85
9.21
8.47
7.75
7.08
6.39
5.69
5.1
4.74
4.67
4.84
5.09
5.23
5.16
4.85
4.27
3.41
2.25
0.91
-0.42
-1.39
-1.71
-1.29
-0.37
0.61
1.22
1.18
0.53
-0.48
-1.48
-2.22
-2.5
-2.32
-1.76
-0.95
-0.1
0.57
0.96
1.06
0.98
0.92
1
1.22
1.47
1.63
1.62
1.48
1.33
1.23
1.26
1.4
1.62
1.83
1.96
1.94
1.73
1.36
0.98
0.72
0.69
0.92
1.31
1.75
2.15
2.47
2.67
2.79
2.84
2.85
2.92
3.08
3.36
3.67
3.9
3.9
3.6
2.96
2.08
1.08
0.14
-0.61
-1.04
-1.13
-0.98
-0.69
-0.41
-0.18
0.02
0.25
0.6
1.08
1.67
2.26
2.76
3.03
2.94
2.44
1.54
0.44
-0.62
-1.43
-1.97
-2.35
-2.74
-3.27
-3.89
-4.41
-4.6
-4.34
-3.61
-2.52
-1.26
-0.02
1.06
1.84
2.21
2.19
1.81
1.21
0.55
-0.1
-0.66
-1.08
-1.31
-1.3
-1.02
-0.48
0.21
0.88
1.38
1.58
1.42
0.99
0.44
-0.04
-0.32
-0.42
-0.51
-0.8
-1.33
-1.98
-2.44
-2.37
-1.66
-0.45
0.93
2.11
2.87
3.19
3.19
3.03
2.83
2.57
2.22
1.74
1.15
0.52
-0.05
-0.47
-0.71
-0.79
-0.81
-0.83
-0.88
-0.87
-0.75
-0.52
-0.26
-0.11
-0.16
-0.44
-0.83
-1.22
-1.51
-1.6
-1.43
-1
-0.37
0.27
0.63
0.55
-0.01
-0.78
-1.39
-1.49
-1.03
-0.21
0.6
1.09
1.11
0.73
0.08
-0.66
-1.36
-1.85
-2
-1.67
-0.89
0.18
1.24
1.94
2.1
1.7
0.92
0.03
-0.75
-1.27
-1.55
-1.67
-1.66
-1.48
-1.08
-0.43
0.38
1.15
1.67
1.85
1.73
1.51
1.4
1.41
1.48
1.44
1.22
0.87
0.51
0.19
-0.11
-0.52
-1.15
-1.98
-2.91
-3.76
-4.3
-4.39
-3.91
-2.86
-1.37
0.28
1.72
2.67
3
2.81
2.32
1.72
1.03
0.2
-0.81
-1.91
-2.82
-3.28
-3.15
-2.52
-1.66
-0.89
-0.43
-0.32
-0.51
-0.87
-1.36
-1.93
-2.58
-3.31
-4.09
-4.84
-5.4
-5.6
-5.24
-4.26
-2.74
-0.9
0.91
2.4
3.41
3.96
4.15
4.13
3.94
3.57
2.95
2.06
1.01
0.09
-0.45
-0.41
0.14
0.92
1.62
2.05
2.23
2.37
2.64
3.02
3.27
3.07
2.23
0.84
-0.78
-2.25
-3.28
-3.82
-4.05
-4.16
-4.34
-4.56
-4.69
-4.52
-3.9
-2.78
-1.31
0.21
1.54
2.47
2.95
3.07
2.99
2.88
2.83
2.85
2.91
2.97
2.93
2.77
2.48
2.13
1.79
1.52
1.32
1.14
0.94
0.72
0.51
0.41
0.39
0.41
0.43
0.41
0.38
0.43
0.62
0.94
1.36
1.79
2.16
2.38
2.39
2.02
1.22
0.02
-1.43
-2.78
-3.74
-4.1
-3.91
-3.35
-2.73
-2.27
-2.1
-2.23
-2.54
-2.92
-3.21
-3.29
-3.09
-2.57
-1.76
-0.8
0.1
0.74
0.99
0.82
0.39
-0.1
-0.45
-0.53
-0.31
0.14
0.75
1.41
2.11
2.79
3.41
3.9
4.11
4.01
3.59
2.91
2.11
1.32
0.65
0.13
-0.23
-0.47
-0.66
-0.88
-1.12
-1.39
-1.65
-1.84
-1.93
-1.92
-1.84
-1.69
-1.45
-1.08
-0.57
0.05
0.67
1.2
1.52
1.59
1.43
1.12
0.79
0.54
0.43
0.44
0.48
0.44
0.26
-0.07
-0.45
-0.77
-0.96
-1.01
-0.92
-0.78
-0.62
-0.45
-0.24
0.04
0.37
0.67
0.81
0.73
0.47
0.18
0.03
0.1
0.3
0.41
0.19
-0.4
-1.21
-1.91
-2.24
-2.11
-1.62
-1.02
-0.46
0.02
0.44
0.81
0.97
0.73
-0.02
-1.14
-2.32
-3.17
-3.4
-3.02
-2.29
-1.52
-0.97
-0.72
-0.66
-0.62
-0.51
-0.34
-0.18
-0.1
-0.07
0.02
0.29
0.77
1.32
1.74
1.79
1.38
0.61
-0.27
-0.96
-1.27
-1.14
-0.65
0.07
0.89
1.7
2.42
2.99
3.35
3.49
3.46
3.32
3.1
2.77
2.27
1.55
0.64
-0.31
-1.06
-1.4
-1.26
-0.72
-0.04
0.52
0.82
0.89
0.91
1.05
1.47
2.08
2.76
3.34
3.73
3.89
3.84
3.56
3.01
2.14
0.95
-0.47
-1.89
-3.07
-3.79
-3.98
-3.66
-3.06
-2.44
-2.04
-1.96
-2.14
-2.43
-2.65
-2.73
-2.7
-2.68
-2.78
-3.03
-3.38
-3.67
-3.77
-3.55
-3
-2.13
-1.11
-0.11
0.61
0.9
0.71
0.11
-0.68
-1.48
-2.12
-2.48
-2.51
-2.13
-1.33
-0.12
1.36
2.91
4.26
5.23
5.69
5.64
5.14
4.3
3.25
2.16
1.21
0.53
0.15
-0.03
-0.18
-0.42
-0.76
-1.01
-0.97
-0.5
0.33
1.21
1.78
1.75
1.11
0.12
-0.79
-1.21
-1
-0.21
0.87
2
2.96
3.69
4.21
4.55
4.71
4.65
4.31
3.64
2.6
1.19
-0.52
-2.32
-3.94
-5.13
-5.71
-5.7
-5.23
-4.48
-3.66
-2.88
-2.21
-1.75
-1.58
-1.72
-2.17
-2.79
-3.32
-3.56
-3.4
-2.92
-2.47
-2.37
-2.88
-3.97
-5.39
-6.75
-7.7
-8.13
-8.16
-8.11
-8.27
-8.84
-9.87
-11.28
-12.96
-14.82
-16.79
-18.83
-20.96
-23.19
-25.54
-28.02
-30.61
-33.38
-36.39
-39.78
-43.67
-48.12
-53.02
-58.12
-63.22
-68.21
-73.29
-78.84
-85.24
-92.64
-100.84
-109.43
-117.97
-126.34
-134.65
-143.3
-152.53
-162.26
-171.97
-180.76
-187.63
-191.57
-191.74
-187.35
-177.76
-162.42
-141.01
-113.59
-80.69
-43.39
-3.22
37.95
78.14
115.41
148.11
174.95
195.2
208.64
215.6
216.88
213.53
206.77
197.77
187.54
176.9
166.38
156.26
146.63
137.49
128.75
120.4
112.46
104.95
97.85
91.05
84.48
78.04
71.78
65.74
59.96
54.45
49.15
44.02
39.11
34.55
30.41
26.7
23.29
20.02
16.79
13.62
10.63
7.99
5.84
4.14
2.81
1.67
0.66
-0.21
-0.84
-1.1
-0.96
-0.5
0.1
0.6
0.89
0.95
0.92
0.85
0.75
0.54
0.07
-0.66
-1.54
-2.38
-3
-3.31
-3.37
-3.25
-3.04
-2.69
-2.17
-1.44
-0.55
0.38
1.25
1.97
2.59
3.12
3.57
3.82
3.78
3.31
2.45
1.38
0.35
-0.42
-0.85
-1.04
-1.19
-1.44
-1.78
-2.02
-1.95
-1.44
-0.56
0.44
1.34
2.01
2.47
2.69
2.48
1.44
-0.79
-4.18
-8.19
-11.78
-13.79
-13.48
-10.83
-6.52
-1.67
2.59
5.45
6.53
5.83
3.72
0.79
-2.21
-4.51
-5.58
-5.23
-3.68
-1.45
0.8
2.61
3.68
4.03
3.81
3.26
2.62
2.01
1.54
1.15
0.76
0.19
-0.68
-1.89
-3.31
-4.69
-5.63
-5.87
-5.29
-4.07
-2.54
-1.1
-0.05
0.51
0.65
0.51
0.2
-0.26
-0.85
-1.55
-2.16
-2.42
-2.05
-0.95
0.75
2.64
4.21
5.05
5.01
4.25
3.07
1.81
0.64
-0.39
-1.27
-1.93
-2.25
-2.11
-1.52
-0.68
0.16
0.7
0.81
0.51
-0.07
-0.72
-1.2
-1.4
-1.29
-0.98
-0.69
-0.67
-1.07
-1.87
-2.81
-3.6
-3.98
-3.85
-3.3
-2.56
-1.87
-1.38
-1.2
-1.31
-1.7
-2.32
-3.12
-4.05
-5.02
-5.94
-6.63
-6.95
-6.76
-6.05
-4.92
-3.58
-2.29
-1.28
-0.55
0.01
0.61
1.42
2.41
3.36
3.97
3.99
3.38
2.36
1.31
0.56
0.32
0.54
1.1
1.91
2.97
4.28
5.72
7
7.64
7.28
5.82
3.62
1.34
-0.4
-1.2
-1.14
-0.63
-0.18
-0.13
-0.54
-1.21
-1.89
-2.43
-2.78
-3.01
-3.2
-3.36
-3.49
-3.55
-3.55
-3.52
-3.51
-3.53
-3.56
-3.61
-3.62
-3.54
-3.28
-2.74
-1.92
-0.89
0.2
1.16
1.91
2.45
2.85
3.16
3.34
3.31
3
2.46
1.81
1.25
0.89
0.69
0.52
0.2
-0.33
-0.98
-1.57
-1.91
-1.94
-1.76
-1.57
-1.56
-1.82
-2.26
-2.74
-3.07
-3.14
-2.95
-2.6
-2.31
-2.18
-2.3
-2.57
-2.87
-2.98
-2.85
-2.46
-1.92
-1.36
-0.87
-0.51
-0.3
-0.23
-0.33
-0.55
-0.82
-1.03
-1.08
-0.92
-0.62
-0.28
0
0.19
0.32
0.41
0.51
0.6
0.68
0.75
0.8
0.89
1
1.08
1.08
0.9
0.54
0.05
-0.39
-0.59
-0.4
0.17
0.97
1.75
2.28
2.5
2.52
2.51
2.59
2.74
2.78
2.57
2.04
1.31
0.56
-0.05
-0.52
-0.96
-1.55
-2.27
-2.97
-3.38
-3.27
-2.59
-1.57
-0.54
0.18
0.42
0.3
0.05
-0.05
0.12
0.5
0.88
1.03
0.89
0.51
0.13
-0.06
0.01
0.28
0.56
0.68
0.65
0.59
0.69
1.02
1.52
1.96
2.14
1.94
1.48
0.93
0.49
0.26
0.17
0.04
-0.38
-1.25
-2.59
-4.22
-5.77
-6.87
-7.28
-6.97
-6.15
-5.16
-4.27
-3.62
-3.19
-2.85
-2.54
-2.3
-2.21
-2.38
-2.78
-3.18
-3.32
-2.97
-2.11
-0.88
0.4
1.46
2.19
2.64
2.99
3.37
3.73
3.91
3.76
3.26
2.55
1.88
1.42
1.25
1.37
1.67
2.07
2.48
2.75
2.75
2.3
1.36
0.1
-1.17
-2.11
-2.47
-2.23
-1.66
-1.13
-1.01
-1.48
-2.47
-3.67
-4.72
-5.34
-5.46
-5.23
-4.85
-4.48
-4.13
-3.66
-2.96
-2.06
-1.14
-0.44
-0.12
-0.19
-0.45
-0.59
-0.41
0.13
0.87
1.57
2.03
2.2
2.2
2.21
2.34
2.52
2.59
2.33
1.75
1.02
0.44
0.25
0.48
0.96
1.43
1.65
1.56
1.27
0.9
0.57
0.29
0.03
-0.22
-0.48
-0.73
-0.94
-1.08
-1.12
-1.08
-0.96
-0.8
-0.65
-0.53
-0.41
-0.29
-0.12
0.04
0.14
0.11
-0.03
-0.2
-0.27
-0.16
0.12
0.45
0.73
0.83
0.71
0.36
-0.18
-0.82
-1.43
-1.88
-2.06
-1.94
-1.58
-1.03
-0.37
0.41
1.31
2.24
3.01
3.39
3.23
2.53
1.53
0.52
-0.25
-0.74
-1.09
-1.5
-2.09
-2.77
-3.32
-3.43
-2.97
-2.08
-1.1
-0.52
-0.67
-1.58
-2.92
-4.19
-4.91
-4.81
-3.94
-2.54
-0.96
0.51
1.63
2.17
1.99
1.06
-0.42
-2.01
-3.09
-3.12
-1.93
0.24
2.74
4.81
5.82
5.58
4.3
2.55
0.88
-0.33
-0.98
-1.23
-1.29
-1.35
-1.39
-1.33
-1.09
-0.67
-0.2
0.18
0.41
0.54
0.71
1.06
1.57
2.09
2.39
2.33
1.93
1.43
1.16
1.43
2.31
3.65
5.08
6.21
6.72
6.56
5.89
4.95
4.02
3.17
2.34
1.42
0.41
-0.58
-1.36
-1.74
-1.73
-1.41
-0.96
-0.43
0.29
1.4
3.01
4.94
6.69
7.62
7.21
5.37
2.57
-0.39
-2.65
-3.71
-3.64
-2.93
-2.29
-2.17
-2.68
-3.54
-4.35
-4.84
-4.92
-4.67
-4.13
-3.22
-1.85
0.09
2.5
5.12
7.49
9.11
9.65
8.91
6.99
4.23
1.12
-1.82
-4.19
-5.83
-6.81
-7.31
-7.53
-7.59
-7.53
-7.41
-7.36
-7.47
-7.76
-8.06
-8.1
-7.62
-6.56
-5.15
-3.83
-3.01
-2.89
-3.35
-4.02
-4.43
-4.31
-3.62
-2.59
-1.56
-0.81
-0.52
-0.71
-1.26
-2.05
-2.96
-3.89
-4.7
-5.26
-5.41
-5.04
-4.17
-3
-1.82
-0.99
-0.73
-0.99
-1.5
-1.87
-1.78
-1.12
0
1.3
2.52
3.47
4.08
4.37
4.37
4.05
3.4
2.48
1.36
0.17
-0.96
-1.97
-2.86
-3.64
-4.25
-4.52
-4.2
-3.06
-1.13
1.25
3.48
4.89
5.07
4.07
2.34
0.59
-0.53
-0.77
-0.18
0.88
2.1
3.29
4.43
5.55
6.6
7.36
7.58
7.1
5.94
4.39
2.79
1.44
0.48
-0.12
-0.41
-0.47
-0.3
0.11
0.68
1.2
1.35
0.92
-0.06
-1.2
-2
-2.03
-1.27
-0.13
0.82
1.09
0.64
-0.19
-0.93
-1.35
-1.57
-2
-2.93
-4.35
-5.91
-7.21
-8.14
-8.86
-9.69
-10.67
-11.53
-11.78
-11.05
-9.36
-7.08
-4.67
-2.31
0.11
2.87
6.01
9.23
11.9
13.45
13.63
12.52
10.41
7.63
4.44
1.13
-1.85
-3.93
-4.63
-3.84
-1.95
0.21
1.8
2.29
1.67
0.42
-0.89
-1.87
-2.44
-2.73
-2.93
-3.07
-3.09
-2.87
-2.38
-1.77
-1.26
-1.04
-1.22
-1.69
-2.26
-2.68
-2.72
-2.27
-1.38
-0.32
0.59
1.06
1
0.58
0.14
-0.06
0.02
0.19
0.19
-0.09
-0.5
-0.68
-0.4
0.32
1.13
1.59
1.45
0.78
-0.08
-0.71
-0.92
-0.75
-0.4
-0.04
0.19
0.25
0.08
-0.39
-1.16
-2.1
-2.92
-3.28
-2.99
-2.07
-0.8
0.45
1.38
1.84
1.88
1.68
1.46
1.4
1.62
2.1
2.75
3.4
3.87
4.09
4.08
3.98
3.92
3.97
4.04
3.95
3.55
2.76
1.74
0.74
0.01
-0.4
-0.6
-0.85
-1.32
-2.03
-2.81
-3.4
-3.61
-3.42
-2.98
-2.53
-2.27
-2.3
-2.56
-2.87
-3.03
-2.87
-2.33
-1.49
-0.59
0.14
0.49
0.42
0
-0.6
-1.25
-1.82
-2.21
-2.4
-2.3
-1.94
-1.36
-0.66
0.01
0.57
0.95
1.18
1.29
1.37
1.46
1.59
1.72
1.79
1.76
1.6
1.36
1.12
0.93
0.72
0.37
-0.3
-1.3
-2.49
-3.55
-4.21
-4.31
-3.94
-3.39
-2.89
-2.57
-2.36
-2.12
-1.76
-1.3
-0.87
-0.57
-0.44
-0.4
-0.35
-0.2
0.07
0.39
0.68
0.84
0.81
0.57
0.14
-0.34
-0.69
-0.74
-0.34
0.47
1.52
2.51
3.14
3.22
2.7
1.71
0.49
-0.71
-1.6
-2.01
-1.87
-1.23
-0.22
0.9
1.89
2.5
2.59
2.13
1.24
0.11
-0.99
-1.82
-2.27
-2.34
-2.15
-1.82
-1.44
-1
-0.43
0.37
1.39
2.49
3.49
4.2
4.55
4.55
4.24
3.61
2.64
1.27
-0.39
-2.05
-3.33
-3.87
-3.52
-2.47
-1.16
-0.03
0.67
1.02
1.19
1.4
1.68
1.85
1.76
1.33
0.65
-0.04
-0.54
-0.76
-0.75
-0.61
-0.43
-0.25
-0.12
-0.11
-0.23
-0.49
-0.83
-1.07
-1.1
-0.81
-0.19
0.66
1.5
1.96
1.65
0.3
-2.01
-4.94
-7.9
-10.25
-11.53
-11.56
-10.33
-8.04
-4.91
-1.29
2.32
5.31
7.08
7.27
5.91
3.45
0.59
-1.98
-3.82
-4.8
-5.01
-4.63
-3.84
-2.69
-1.32
0.13
1.4
2.29
2.75
2.97
3.19
3.6
4.15
4.54
4.45
3.72
2.54
1.35
0.62
0.57
1.07
1.75
2.24
2.32
2.07
1.71
1.46
1.38
1.37
1.27
0.95
0.46
-0.05
-0.4
-0.47
-0.34
-0.22
-0.31
-0.66
-1.19
-1.64
-1.77
-1.47
-0.84
-0.16
0.28
0.3
-0.07
-0.71
-1.37
-1.89
-2.18
-2.2
-1.98
-1.62
-1.24
-1.01
-1.01
-1.28
-1.74
-2.25
-2.66
-2.88
-2.85
-2.47
-1.62
-0.23
1.63
3.67
5.42
6.45
6.49
5.66
4.34
3.07
2.26
2.02
2.19
2.43
2.42
2.06
1.47
0.86
0.48
0.42
0.6
0.85
1.03
1.08
1.02
0.91
0.71
0.33
-0.29
-1.13
-2.03
-2.8
-3.31
-3.55
-3.57
-3.42
-3.11
-2.63
-1.96
-1.16
-0.33
0.46
1.14
1.69
2.04
2.15
1.96
1.58
1.24
1.24
1.71
2.59
3.55
4.2
4.25
3.63
2.56
1.31
0.18
-0.7
-1.27
-1.54
-1.56
-1.41
-1.21
-1.17
-1.52
-2.39
-3.73
-5.29
-6.69
-7.58
-7.83
-7.53
-6.93
-6.29
-5.73
-5.26
-4.79
-4.33
-3.96
-3.76
-3.75
-3.79
-3.75
-3.53
-3.23
-3
-2.96
-3.01
-2.87
-2.25
-1
0.78
2.79
4.72
6.4
7.82
9
9.86
10.21
9.84
8.65
6.81
4.71
2.84
1.56
1.05
1.16
1.53
1.74
1.47
0.65
-0.63
-2.04
-3.28
-4
-4.04
-3.41
-2.23
-0.76
0.65
1.58
1.71
0.86
-0.8
-2.84
-4.65
-5.68
-5.66
-4.72
-3.27
-1.75
-0.5
0.33
0.76
0.83
0.57
-0.01
-0.81
-1.56
-1.94
-1.68
-0.72
0.72
2.23
3.4
4.01
4.08
3.82
3.47
3.13
2.73
2.09
1.06
-0.3
-1.74
-2.98
-3.72
-3.91
-3.6
-2.99
-2.27
-1.54
-0.87
-0.25
0.31
0.87
1.39
1.88
2.26
2.48
2.54
2.45
2.29
2.16
2.1
2.06
1.97
1.76
1.42
1.06
0.82
0.84
1.13
1.61
2.04
2.19
1.96
1.4
0.76
0.34
0.35
0.8
1.5
2.19
2.56
2.49
1.93
0.92
-0.42
-1.94
-3.37
-4.39
-4.72
-4.28
-3.3
-2.2
-1.5
-1.49
-2.18
-3.25
-4.28
-4.92
-5.09
-4.86
-4.41
-3.88
-3.33
-2.81
-2.34
-2.03
-1.9
-1.99
-2.16
-2.25
-2.15
-1.75
-1.08
-0.22
0.68
1.46
1.99
2.18
2.11
1.87
1.63
1.48
1.44
1.42
1.31
1.07
0.7
0.33
0.03
-0.07
0.04
0.34
0.77
1.24
1.69
2.05
2.27
2.32
2.17
1.84
1.39
0.94
0.59
0.45
0.5
0.69
0.91
1.15
1.4
1.69
1.95
2.03
1.79
1.18
0.33
-0.52
-1.13
-1.38
-1.4
-1.41
-1.62
-2.18
-3.06
-4.12
-5.17
-5.99
-6.41
-6.36
-5.9
-5.19
-4.46
-3.86
-3.35
-2.79
-2.08
-1.23
-0.52
-0.28
-0.7
-1.65
-2.71
-3.42
-3.47
-2.92
-2.06
-1.23
-0.64
-0.29
-0.02
0.35
0.86
1.46
2.04
2.53
2.98
3.47
4.1
4.87
5.69
6.4
6.85
6.95
6.76
6.42
6.05
5.79
5.68
5.73
5.95
6.33
6.81
7.33
7.79
8.16
8.45
8.74
9.07
9.28
9.12
8.22
6.4
3.77
0.76
-1.99
-4.03
-5.13
-5.49
-5.44
-5.27
-5.08
-4.75
-4.21
-3.5
-2.92
-2.78
-3.38
-4.64
-6.22
-7.64
-8.47
-8.54
-7.95
-7
-6.02
-5.21
-4.57
-4.02
-3.36
-2.47
-1.39
-0.31
0.51
0.89
0.87
0.67
0.67
1.15
2.18
3.54
4.83
5.63
5.72
5.08
3.95
2.57
1.16
-0.18
-1.35
-2.3
-2.92
-3.23
-3.3
-3.37
-3.67
-4.27
-5.07
-5.77
-6.07
-5.83
-5.19
-4.44
-3.95
-3.9
-4.22
-4.61
-4.69
-4.14
-2.88
-1.11
0.85
2.59
3.8
4.41
4.54
4.39
4.13
3.8
3.33
2.66
1.85
1.07
0.55
0.39
0.56
0.8
0.9
0.76
0.46
0.2
0.14
0.31
0.63
0.99
1.36
1.87
2.65
3.78
5.09
6.22
6.75
6.38
5.08
3.11
0.86
-1.33
-3.25
-4.87
-6.19
-7.11
-7.46
-7.1
-6.02
-4.51
-2.99
-1.84
-1.24
-1.08
-1.03
-0.8
-0.24
0.57
1.44
2.15
2.57
2.69
2.49
2.05
1.39
0.63
-0.13
-0.75
-1.1
-1.14
-0.95
-0.7
-0.57
-0.72
-1.17
-1.79
-2.35
-2.67
-2.67
-2.51
-2.43
-2.59
-2.94
-3.21
-3.08
-2.37
-1.23
-0.09
0.65
0.77
0.5
0.28
0.58
1.64
3.37
5.45
7.52
9.4
10.97
12.12
12.59
12.05
10.33
7.64
4.67
2.26
1.09
1.27
2.31
3.33
3.56
2.68
0.92
-1.17
-2.98
-4.17
-4.69
-4.7
-4.36
-3.79
-2.98
-1.92
-0.67
0.67
1.83
2.58
2.75
2.36
1.62
0.84
0.3
0.09
0.09
-0.04
-0.6
-1.72
-3.23
-4.79
-6.04
-6.76
-6.95
-6.76
-6.38
-5.97
-5.61
-5.35
-5.24
-5.29
-5.45
-5.64
-5.74
-5.72
-5.6
-5.44
-5.24
-4.9
-4.33
-3.41
-2.21
-0.9
0.25
1.04
1.36
1.31
1.07
0.91
0.96
1.21
1.49
1.59
1.36
0.82
0.23
-0.12
0.01
0.7
1.83
3.19
4.5
5.54
6.11
6.09
5.5
4.46
3.23
2.05
1.14
0.57
0.38
0.52
0.89
1.38
1.85
2.11
2.11
1.85
1.49
1.13
0.86
0.65
0.44
0.21
0.01
-0.04
0.09
0.37
0.72
1.06
1.46
2
2.82
3.9
5.07
6.09
6.7
6.79
6.4
5.77
5.18
4.82
4.76
4.88
4.96
4.8
4.35
3.71
3.09
2.62
2.31
2.02
1.59
0.9
-0.07
-1.24
-2.55
-3.89
-5.12
-6.07
-6.53
-6.37
-5.65
-4.65
-3.71
-3.22
-3.38
-4.18
-5.42
-6.75
-7.75
-8.15
-7.89
-7.23
-6.81
-7.43
-9.87
-14.61
-21.64
-30.48
-40.31
-50.14
-59.02
-66.2
-71.2
-73.79
-73.97
-71.81
-67.47
-61.11
-53
-43.52
-33.22
-22.77
-12.95
-4.57
1.7
5.6
7.68
9.39
12.9
20.29
32.61
49.24
67.89
85.46
99.17
107.47
110.29
108.62
103.69
96.41
87.21
76.32
64.21
51.65
39.6
28.79
19.59
11.9
5.51
0.3
-3.59
-5.76
-5.86
-3.82
0.04
4.95
10.05
14.57
18.14
20.62
22
22.06
20.45
16.83
11.22
4.33
-2.63
-8.3
-11.65
-12.41
-11
-8.25
-4.93
-1.53
1.68
4.38
5.99
5.82
3.41
-1.19
-7.39
-14.33
-21.28
-28.03
-34.67
-41.4
-48.1
-54.22
-58.93
-61.46
-61.39
-58.65
-53.37
-45.65
-35.4
-22.52
-7.12
10.2
28.33
45.8
61.13
73.2
81.39
85.74
86.76
85.3
82.27
78.46
74.42
70.48
66.73
63.18
59.8
56.4
52.64
47.88
41.4
32.74
22.15
10.76
0.37
-7.19
-10.79
-10.42
-7.04
-2.31
2.16
5.08
5.78
4.1
0.33
-4.91
-10.91
-17.09
-23.23
-29.51
-36.25
-43.49
-50.64
-56.42
-59.32
-58.36
-53.51
-45.87
-37.17
-29.13
-22.81
-18.48
-15.88
-14.59
-14.33
-14.96
-16.25
-17.83
-19.25
-20.26
-21.11
-22.52
-25.32
-29.93
-35.97
-42.32
-47.57
-50.55
-50.85
-48.72
-44.88
-40.07
-34.86
-29.5
-24.1
-18.78
-13.67
-8.93
-4.71
-1.2
1.36
2.67
2.44
0.52
-2.97
-7.55
-12.64
-17.6
-21.94
-25.36
-27.68
-28.88
-28.95
-27.96
-26
-23.17
-19.52
-15.14
-10.11
-4.61
1.1
6.6
11.41
15.06
17.2
17.7
16.74
14.7
12.16
9.65
7.54
6.01
5.08
4.75
4.96
5.62
6.5
7.33
7.89
8.04
7.88
7.59
7.41
7.42
7.55
7.63
7.49
7.05
6.37
5.56
4.85
4.45
4.55
5.28
6.63
8.29
9.89
10.93
11.08
10.25
8.69
6.88
5.36
4.55
4.55
5.11
5.8
6.13
5.77
4.68
3.07
1.26
-0.44
-1.87
-2.97
-3.84
-4.55
-5.13
-5.53
-5.75
-5.8
-5.77
-5.86
-6.24
-6.97
-7.96
-8.9
-9.37
-8.91
-7.36
-4.84
-1.86
0.9
2.85
3.66
3.47
2.75
2.08
1.96
2.54
3.57
4.59
5.03
4.54
3.03
0.75
-1.82
-4.21
-6.06
-7.25
-7.91
-8.31
-8.71
-9.24
-9.86
-10.37
-10.59
-10.41
-9.88
-9.25
-8.75
-8.59
-8.77
-9.18
-9.57
-9.66
-9.28
-8.31
-6.77
-4.73
-2.37
0.02
2.06
3.37
3.68
3.04
1.77
0.45
-0.41
-0.53
0.09
1.25
2.71
4.33
6.07
7.92
9.84
11.71
13.39
14.73
15.66
16.13
16.13
15.61
14.59
13.09
11.24
9.26
7.38
5.77
4.54
3.64
2.94
2.3
1.71
1.31
1.39
2.18
3.66
5.5
7.11
7.87
7.4
5.76
3.39
0.92
-1.12
-2.44
-3.14
-3.52
-3.87
-4.35
-4.88
-5.29
-5.43
-5.24
-4.82
-4.31
-3.82
-3.36
-2.94
-2.57
-2.31
-2.21
-2.21
-2.11
-1.66
-0.68
0.8
2.53
4.14
5.27
5.69
5.4
4.58
3.63
2.99
3.05
3.95
5.49
7.14
8.2
7.99
6.14
2.75
-1.66
-6.32
-10.46
-13.51
-15.23
-15.68
-15.1
-13.82
-12.13
-10.27
-8.42
-6.76
-5.43
-4.49
-3.86
-3.37
-2.73
-1.79
-0.52
0.89
2.16
3.06
3.51
3.66
3.7
3.76
3.85
3.74
3.18
2.01
0.33
-1.47
-2.87
-3.41
-2.86
-1.39
0.58
2.53
4.01
4.85
5.08
4.89
4.45
3.89
3.24
2.45
1.51
0.4
-0.81
-1.98
-2.86
-3.19
-2.74
-1.55
0.12
1.77
2.93
3.34
3.04
2.38
1.73
1.32
1.13
1.01
0.77
0.38
-0.11
-0.6
-1.13
-1.83
-2.81
-4.03
-5.12
-5.54
-4.82
-2.76
0.35
3.84
6.93
8.98
9.74
9.33
8.12
6.54
4.9
3.38
2.01
0.89
0.08
-0.33
-0.36
-0.14
0.08
0.05
-0.35
-1.07
-1.85
-2.42
-2.53
-2.09
-1.26
-0.26
0.72
1.54
2.15
2.54
2.67
2.44
1.86
1.04
0.26
-0.12
0.17
1.22
2.8
4.51
5.99
7
7.51
7.68
7.6
7.26
6.56
5.35
3.58
1.43
-0.77
-2.66
-3.98
-4.75
-5.18
-5.59
-6.12
-6.66
-6.88
-6.42
-5.13
-3.27
-1.34
0.09
0.75
0.7
0.23
-0.29
-0.67
-0.86
-0.86
-0.65
-0.15
0.69
1.74
2.82
3.72
4.38
4.9
5.39
5.82
6
5.68
4.73
3.26
1.62
0.21
-0.68
-1.04
-1.01
-0.83
-0.64
-0.49
-0.32
-0.1
0.19
0.49
0.74
0.91
0.92
0.76
0.39
-0.16
-0.83
-1.56
-2.31
-3.02
-3.58
-3.84
-3.62
-2.86
-1.63
-0.22
1.02
1.82
2.11
1.99
1.67
1.29
0.96
0.67
0.41
0.22
0.11
0.04
-0.03
-0.23
-0.67
-1.39
-2.36
-3.43
-4.42
-5.13
-5.54
-5.75
-5.97
-6.39
-6.94
-7.41
-7.4
-6.62
-5.08
-3.04
-0.93
0.98
2.58
3.95
5.12
5.97
6.25
5.72
4.34
2.38
0.32
-1.33
-2.26
-2.46
-2.23
-2.01
-2.14
-2.72
-3.61
-4.52
-5.18
-5.51
-5.6
-5.67
-5.84
-6.11
-6.33
-6.26
-5.72
-4.63
-3.1
-1.3
0.44
1.89
2.89
3.39
3.54
3.5
3.43
3.36
3.22
2.92
2.42
1.75
1.01
0.27
-0.35
-0.76
-0.92
-0.81
-0.52
-0.19
0
-0.02
-0.2
-0.37
-0.41
-0.34
-0.28
-0.4
-0.73
-1.13
-1.36
-1.19
-0.54
0.39
1.29
1.8
1.65
0.87
-0.35
-1.67
-2.76
-3.39
-3.51
-3.19
-2.6
-1.98
-1.58
-1.65
-2.49
-4.22
-6.93
-10.44
-14.41
-18.34
-21.66
-23.82
-24.5
-23.72
-21.75
-19.15
-16.47
-14.12
-12.2
-10.46
-8.43
-5.65
-1.85
2.85
7.97
12.86
16.95
19.97
21.97
23.28
24.18
24.69
24.7
23.99
22.61
20.93
19.54
18.88
18.98
19.34
19.12
17.62
14.57
10.42
6.1
2.67
0.89
0.94
2.41
4.56
6.65
8.18
8.94
9.03
8.63
7.92
7
5.91
4.72
3.65
3.05
3.36
4.93
7.81
11.66
15.78
19.34
21.57
21.99
20.48
17.21
12.66
7.38
2.02
-2.82
-6.69
-9.36
-10.85
-11.37
-11.19
-10.58
-9.69
-8.6
-7.38
-6.04
-4.65
-3.24
-1.84
-0.46
0.88
2.12
3.12
3.64
3.34
1.93
-0.62
-4.03
-7.64
-10.55
-12
-11.59
-9.56
-6.59
-3.58
-1.31
-0.18
-0.19
-1.01
-2.22
-3.47
-4.56
-5.4
-6
-6.4
-6.66
-6.85
-7.11
-7.59
-8.46
-9.74
-11.33
-12.95
-14.25
-14.94
-14.83
-13.89
-12.21
-9.93
-7.25
-4.38
-1.62
0.79
2.65
3.94
4.69
4.94
4.68
3.91
2.75
1.48
0.56
0.39
1.14
2.64
4.47
6.12
7.16
7.4
6.84
5.64
4.01
2.19
0.41
-1.13
-2.28
-2.94
-3.04
-2.55
-1.47
0.02
1.7
3.23
4.3
4.77
4.61
4.02
3.23
2.51
2.04
1.93
2.14
2.47
2.63
2.31
1.4
-0.03
-1.66
-3.09
-3.99
-4.22
-3.84
-3.02
-1.96
-0.81
0.32
1.37
2.32
3.14
3.77
4.14
4.18
3.84
3.19
2.47
2.08
2.37
3.49
5.26
7.21
8.79
9.5
9.15
7.88
6.01
3.93
1.84
-0.22
-2.39
-4.88
-7.84
-11.25
-15.02
-18.97
-22.89
-26.58
-29.79
-32.24
-33.61
-33.74
-32.61
-30.49
-27.8
-24.9
-22.04
-19.22
-16.35
-13.35
-10.31
-7.42
-4.85
-2.71
-0.93
0.67
2.24
3.9
5.56
6.97
7.79
7.77
6.82
5.18
3.3
1.63
0.46
-0.17
-0.47
-0.66
-0.9
-1.23
-1.58
-1.94
-2.31
-2.63
-2.69
-2.19
-0.93
1.01
3.12
4.66
4.92
3.54
0.79
-2.56
-5.38
-6.69
-5.95
-3.28
0.49
4.24
6.84
7.62
6.63
4.59
2.64
1.9
3.1
6.38
11.23
16.76
21.97
25.98
28.29
28.84
27.92
26.05
23.77
21.53
19.55
17.87
16.4
15
13.62
12.36
11.44
11.15
11.68
13.03
14.89
16.72
17.9
17.86
16.31
13.25
9.03
4.32
-0.09
-3.36
-4.86
-4.34
-2.09
1.04
3.88
5.33
4.84
2.58
-0.52
-3.14
-4.11
-2.88
0.3
4.43
8.22
10.57
10.85
9.04
5.66
1.4
-3.09
-7.41
-11.56
-15.86
-20.88
-27.12
-34.47
-41.95
-47.62
-49.09
-44.45
-33.5
-18.2
-2.37
9.66
14.86
12.75
5.55
-2.88
-8.88
-10.43
-7.74
-2.59
2.85
7.21
10.28
12.69
15.11
17.63
19.65
20.28
18.93
15.69
11.36
7.03
3.67
1.78
1.29
1.81
2.86
4.09
5.27
6.16
6.4
5.45
2.82
-1.61
-7.44
-13.6
-18.71
-21.42
-20.83
-16.77
-10
-1.87
5.83
11.3
13.09
10.48
3.67
-6.1
-16.72
-25.73
-30.98
-31.25
-26.65
-18.64
-9.52
-1.71
2.92
3.72
1.33
-2.67
-6.43
-8.58
-8.82
-7.85
-6.96
-7.2
-8.83
-11.19
-13.26
-14.27
-14.09
-13.14
-11.8
-9.96
-6.95
-2.07
4.76
12.62
20.03
25.63
28.86
30.15
30.41
30.37
30.1
29.11
26.82
23.19
18.8
14.64
11.66
10.38
10.7
12.07
13.82
15.26
15.98
15.71
14.35
11.94
8.62
4.66
0.39
-3.75
-7.26
-9.59
-10.41
-9.66
-7.68
-5.13
-2.75
-0.99
0.06
0.68
1.29
2.16
3.21
4.1
4.41
3.89
2.46
0.29
-2.41
-5.45
-8.67
-12.05
-15.53
-19.1
-22.7
-26.13
-29.06
-30.95
-31.23
-29.43
-25.46
-19.71
-13.04
-6.56
-1.32
2.07
3.67
4.24
4.96
6.92
10.65
15.85
21.55
26.56
29.96
31.47
31.36
30.2
28.38
25.95
22.65
18.27
12.91
7.18
2
-1.7
-3.41
-3.25
-1.85
-0.08
1.39
2.26
2.79
3.47
4.7
6.64
9
11.27
12.86
13.39
12.7
10.99
8.75
6.69
5.46
5.45
6.52
8.08
9.23
9.24
7.82
5.27
2.26
-0.48
-2.57
-3.99
-5.1
-6.32
-7.9
-9.86
-12.02
-14.13
-15.98
-17.45
-18.46
-18.96
-18.84
-17.86
-15.86
-12.75
-8.71
-4.27
-0.14
2.85
4.04
3.08
0.09
-4.36
-9.38
-13.97
-17.29
-18.86
-18.67
-17.07
-14.64
-11.94
-9.4
-7.28
-5.72
-4.79
-4.52
-4.81
-5.43
-6.07
-6.46
-6.41
-6.01
-5.46
-5.09
-5.14
-5.65
-6.43
-7.14
-7.38
-6.82
-5.38
-3.2
-0.74
1.33
2.33
1.77
-0.37
-3.47
-6.41
-7.92
-7.1
-3.86
1
6.08
10.04
12.13
12.37
11.4
9.99
8.67
7.59
6.65
5.82
5.23
5.07
5.51
6.44
7.48
8.24
8.4
7.99
7.3
6.74
6.59
6.92
7.55
8.13
8.32
7.79
6.37
4.07
1.13
-1.92
-4.36
-5.35
-4.31
-1.08
3.86
9.54
14.76
18.53
20.32
20.18
18.55
15.98
12.98
9.85
6.73
3.77
1.13
-0.97
-2.37
-3
-2.94
-2.44
-1.81
-1.36
-1.3
-1.7
-2.39
-3.16
-3.76
-4.07
-4.2
-4.4
-5
-6.26
-8.22
-10.63
-12.98
-14.6
-14.82
-13.2
-9.71
-4.78
0.75
5.88
9.67
11.54
11.37
9.5
6.58
3.35
0.47
-1.68
-2.93
-3.3
-2.95
-2.03
-0.77
0.49
1.33
1.35
0.33
-1.44
-3.36
-4.6
-4.61
-3.34
-1.23
0.95
2.55
3.2
2.91
1.79
0.04
-2.14
-4.37
-6.01
-6.38
-5
-1.97
1.99
5.76
8.31
9.12
8.28
6.37
4.03
1.73
-0.41
-2.37
-4.19
-5.76
-6.93
-7.52
-7.48
-6.93
-6.02
-5.01
-4.15
-3.62
-3.53
-3.84
-4.42
-5
-5.37
-5.37
-4.97
-4.18
-3.08
-1.85
-0.78
-0.21
-0.41
-1.42
-2.86
-4.08
-4.34
-3.25
-0.89
2.14
5.04
7.21
8.4
8.81
8.76
8.53
8.17
7.55
6.53
5.11
3.53
2.14
1.27
1.05
1.33
1.69
1.59
0.6
-1.33
-3.91
-6.52
-8.54
-9.6
-9.81
-9.57
-9.38
-9.55
-10.07
-10.71
-11.25
-11.67
-12.13
-12.76
-13.39
-13.51
-12.53
-10.11
-6.45
-2.24
1.6
4.35
5.77
6.09
5.7
4.97
4.02
2.84
1.46
0.12
-0.8
-0.88
0.05
1.84
4.04
6.07
7.5
8.13
8.06
7.59
7.07
6.77
6.78
7.02
7.37
7.58
7.44
6.76
5.44
3.57
1.49
-0.28
-1.16
-0.7
1.15
4.04
7.26
10.07
11.91
12.53
11.99
10.52
8.35
5.67
2.66
-0.43
-3.25
-5.4
-6.49
-6.32
-4.97
-2.77
-0.35
1.66
2.75
2.72
1.82
0.55
-0.54
-1.05
-0.9
-0.32
0.37
0.8
0.63
-0.37
-2.44
-5.61
-9.67
-14.18
-18.51
-22.05
-24.38
-25.3
-24.78
-22.85
-19.46
-14.63
-8.57
-1.8
4.83
10.33
13.93
15.36
14.9
13.36
11.7
10.72
10.79
11.83
13.32
14.5
14.66
13.41
10.92
7.89
5.34
4.22
4.87
6.83
8.99
10.21
9.93
8.58
7.45
7.95
10.91
16.04
21.96
26.88
29.33
28.67
25.28
20.13
14.41
9.13
4.9
1.94
0.08
-1.08
-2.24
-4.15
-7.41
-12.24
-18.31
-24.76
-30.42
-34.1
-34.96
-32.78
-28.02
-21.81
-15.56
-10.66
-7.99
-7.74
-9.34
-11.68
-13.37
-13.15
-10.18
-4.27
3.97
13.22
21.71
27.68
29.9
28.11
23.1
16.42
9.86
4.83
1.96
1.01
1.23
1.77
2.06
1.98
1.72
1.53
1.53
1.76
2.19
2.97
4.37
6.62
9.69
13.18
16.29
18.09
17.84
15.08
9.93
2.92
-5.09
-13.03
-19.93
-25.01
-27.8
-28.12
-26.03
-21.63
-15.18
-7.16
1.55
9.68
15.88
19.12
19.14
16.54
12.51
8.33
4.85
2.33
0.51
-1
-2.47
-3.97
-5.43
-6.9
-8.58
-10.83
-13.89
-17.77
-22.19
-26.71
-30.86
-34.26
-36.62
-37.57
-36.6
-33.1
-26.78
-17.94
-7.81
1.71
8.66
11.83
11.21
8.02
4.01
0.75
-1.05
-1.58
-1.5
-1.34
-1.2
-0.73
0.44
2.3
4.38
5.95
6.45
5.83
4.59
3.49
3.16
3.75
4.9
5.94
6.23
5.41
3.5
0.83
-2.07
-4.58
-6.07
-6.09
-4.56
-1.83
1.26
3.81
5.1
4.94
3.7
1.94
0.15
-1.52
-3.17
-4.89
-6.54
-7.72
-7.99
-7.11
-5.27
-2.98
-0.9
0.46
0.98
0.88
0.65
0.76
1.43
2.5
3.44
3.56
2.31
-0.54
-4.72
-9.45
-13.63
-16.18
-16.35
-14.06
-9.86
-4.88
-0.31
2.9
4.42
4.48
3.68
2.56
1.4
0.18
-1.24
-2.94
-4.77
-6.48
-7.84
-8.73
-9.21
-9.39
-9.29
-8.84
-7.86
-6.16
-3.59
-0.12
4.16
8.99
13.91
18.2
20.96
21.33
18.77
13.35
5.92
-2.12
-9.14
-13.84
-15.58
-14.51
-11.33
-6.93
-1.92
3.45
9.21
15.31
21.33
26.39
29.45
29.66
26.85
21.6
15.02
8.46
3.06
-0.52
-2.17
-2.26
-1.54
-0.89
-1.05
-2.37
-4.61
-7.06
-8.77
-9.06
-7.84
-5.53
-2.91
-0.63
1.04
2.4
4.14
7.13
11.86
18.33
25.79
33.01
38.63
41.63
41.6
38.77
33.91
27.85
21.31
14.72
8.29
2.14
-3.59
-8.77
-13.39
-17.53
-21.46
-25.46
-29.77
-34.39
-38.98
-42.88
-45.39
-46.02
-44.62
-41.61
-37.62
-33.36
-29.28
-25.48
-21.74
-17.65
-12.82
-7.04
-0.55
6.07
11.97
16.32
18.64
19.05
18.19
17.02
16.49
17.07
18.67
20.69
22.24
22.57
21.33
18.68
15.28
11.98
9.54
8.49
8.96
10.71
13.22
15.81
17.76
18.49
17.7
15.5
12.4
9.17
6.44
4.57
3.45
2.59
1.34
-0.82
-4.01
-7.88
-11.69
-14.59
-16.02
-15.97
-15.07
-14.25
-14.36
-15.72
-17.98
-20.24
-21.62
-21.6
-20.24
-18.1
-15.81
-13.84
-12.3
-11.18
-10.51
-10.49
-11.46
-13.64
-16.93
-20.68
-23.94
-25.68
-25.32
-22.9
-19.15
-15.21
-12.22
-11.02
-11.89
-14.57
-18.25
-21.74
-23.63
-22.69
-18.22
-10.38
-0.35
9.99
18.72
24.5
26.97
26.76
25.02
22.99
21.54
21.11
21.68
22.96
24.61
26.29
27.83
29.28
30.73
32.26
33.67
34.47
34.03
31.88
28.03
22.97
17.39
11.86
6.54
1.33
-3.82
-8.66
-12.59
-14.94
-15.34
-13.92
-11.28
-8.2
-5.33
-3.12
-1.89
-1.92
-3.38
-6.29
-10.23
-14.49
-18.38
-21.5
-24.05
-26.65
-29.94
-34.14
-38.82
-43.06
-45.77
-46.17
-43.97
-39.4
-33
-25.5
-17.72
-10.52
-4.57
-0.23
2.71
4.9
7.06
9.59
12.24
14.32
15.23
15.03
14.57
15.08
17.45
21.6
26.48
30.65
33.01
33.34
32.28
30.89
30.18
30.72
32.54
35.27
38.3
41.04
42.97
43.84
43.69
42.78
41.38
39.56
37.06
33.43
28.24
21.42
13.39
4.93
-2.95
-9.41
-13.87
-16.14
-16.43
-15.22
-13.08
-10.68
-8.56
-7.11
-6.47
-6.61
-7.26
-8.03
-8.51
-8.34
-7.39
-5.78
-3.87
-2.21
-1.3
-1.42
-2.56
-4.35
-6.14
-7.14
-6.7
-4.4
-0.36
4.78
9.79
13.23
13.85
11.16
5.61
-1.39
-7.96
-12.35
-13.51
-11.42
-6.85
-1.06
4.79
9.97
14.23
17.61
20.14
21.7
22.05
21.05
18.89
16.16
13.64
12.05
11.71
12.41
13.45
13.98
13.27
10.99
7.35
3.01
-1.13
-4.25
-5.89
-6.04
-5.07
-3.51
-1.82
-0.27
1
1.86
2.15
1.64
0.15
-2.41
-5.93
-10.21
-14.84
-19.34
-23.25
-26.16
-27.98
-28.85
-29.1
-28.89
-28.16
-26.54
-23.7
-19.63
-14.79
-10.05
-6.26
-3.86
-2.72
-2.37
-2.32
-2.37
-2.63
-3.3
-4.38
-5.53
-6.19
-5.89
-4.51
-2.35
0
1.93
3.02
3.21
2.71
1.91
1.22
0.96
1.28
2.16
3.4
4.66
5.48
5.45
4.29
2.02
-0.98
-4.13
-6.82
-8.71
-9.85
-10.49
-10.98
-11.36
-11.35
-10.5
-8.5
-5.47
-2.02
1.05
3.06
3.81
3.63
3.09
2.77
2.86
3.19
3.34
2.95
1.9
0.38
-1.29
-2.83
-4.1
-5.19
-6.25
-7.26
-8.02
-8.07
-7.05
-4.79
-1.57
1.94
4.84
6.39
6.15
4.26
1.29
-1.94
-4.64
-6.29
-6.74
-6.17
-4.97
-3.6
-2.41
-1.68
-1.57
-2.02
-2.77
-3.4
-3.32
-2.08
0.45
3.92
7.62
10.67
12.4
12.52
11.17
8.78
5.88
2.94
0.26
-1.89
-3.4
-4.18
-4.25
-3.71
-2.77
-1.66
-0.62
0.14
0.56
0.67
0.59
0.45
0.38
0.42
0.49
0.48
0.31
-0.09
-0.69
-1.39
-2.06
-2.54
-2.69
-2.44
-1.85
-1.2
-0.95
-1.56
-3.31
-6.05
-9.2
-11.84
-13.18
-12.79
-10.81
-7.81
-4.52
-1.48
1.08
3.2
5.01
6.49
7.51
7.94
7.73
7.09
6.34
5.79
5.52
5.44
5.28
4.86
4.1
3.08
2
1.02
0.19
-0.52
-1.18
-1.87
-2.62
-3.35
-3.97
-4.32
-4.3
-3.95
-3.42
-3.04
-3.1
-3.81
-5.08
-6.54
-7.67
-8.04
-7.45
-6.05
-4.2
-2.32
-0.72
0.53
1.53
2.38
3.15
3.8
4.2
4.23
3.81
2.95
1.73
0.33
-1.02
-2.09
-2.69
-2.73
-2.27
-1.48
-0.57
0.2
0.66
0.72
0.45
0.07
-0.15
0.03
0.69
1.62
2.39
2.51
1.68
-0.05
-2.16
-3.95
-4.77
-4.32
-2.85
-0.88
0.96
2.31
3.17
3.83
4.53
5.28
5.83
5.77
4.9
3.36
1.56
0.03
-0.9
-1.21
-1.14
-1.04
-1.18
-1.68
-2.42
-3.21
-3.84
-4.11
-3.92
-3.33
-2.46
-1.49
-0.59
0.12
0.56
0.67
0.47
0.02
-0.46
-0.69
-0.43
0.26
1.13
1.71
1.66
0.92
-0.21
-1.21
-1.65
-1.4
-0.57
0.59
1.83
3.1
4.48
6
7.55
8.86
9.57
9.26
7.72
4.99
1.4
-2.49
-6.07
-8.82
-10.44
-10.92
-10.42
-9.26
-7.8
-6.42
-5.5
-5.27
-5.72
-6.51
-7.06
-6.79
-5.42
-3.1
-0.36
2.19
4.15
5.46
6.29
6.86
7.22
7.26
6.86
5.96
4.71
3.4
2.27
1.49
1.07
0.92
0.89
0.81
0.53
0.03
-0.59
-1.18
-1.5
-1.4
-0.83
0.09
1.19
2.23
2.94
3.06
2.38
0.93
-1.04
-2.98
-4.18
-4.17
-2.83
-0.56
1.95
4
5.16
5.45
5.24
4.92
4.67
4.42
3.89
2.87
1.27
-0.67
-2.58
-4.02
-4.67
-4.45
-3.49
-2.06
-0.51
0.88
1.96
2.72
3.21
3.57
3.81
3.93
3.92
3.75
3.47
3.04
2.36
1.31
-0.14
-1.79
-3.23
-3.96
-3.67
-2.41
-0.57
1.25
2.59
3.24
3.27
2.91
2.34
1.63
0.8
-0.12
-1.06
-1.9
-2.58
-3.11
-3.52
-3.82
-4
-4.02
-3.87
-3.6
-3.28
-2.97
-2.68
-2.4
-2.1
-1.79
-1.49
-1.3
-1.26
-1.49
-2.11
-3.2
-4.66
-6.22
-7.44
-7.89
-7.32
-5.73
-3.38
-0.68
1.99
4.37
6.33
7.8
8.75
9.17
9.06
8.43
7.36
5.93
4.31
2.65
1.09
-0.19
-1.13
-1.66
-1.85
-1.82
-1.76
-1.87
-2.22
-2.75
-3.22
-3.37
-2.97
-2.02
-0.75
0.43
1.1
0.93
-0.17
-1.97
-3.94
-5.45
-5.94
-5.2
-3.44
-1.21
0.88
2.41
3.31
3.8
4.13
4.41
4.55
4.36
3.66
2.47
0.94
-0.65
-2.06
-3.12
-3.73
-3.9
-3.72
-3.31
-2.82
-2.31
-1.77
-1.15
-0.44
0.31
1
1.56
1.99
2.31
2.51
2.43
1.85
0.61
-1.17
-3.06
-4.46
-4.92
-4.28
-2.78
-0.95
0.7
1.82
2.32
2.3
1.93
1.32
0.47
-0.65
-2.05
-3.62
-5.13
-6.36
-7.15
-7.47
-7.46
-7.3
-7.12
-6.93
-6.66
-6.22
-5.63
-5.13
-5.01
-5.57
-6.81
-8.44
-10.02
-11.16
-11.76
-12.15
-12.96
-14.73
-17.63
-21.21
-24.51
-26.51
-26.5
-24.49
-21.16
-17.67
-15.24
-14.98
-17.54
-22.99
-30.75
-39.46
-47.11
-51.44
-50.49
-43.33
-30.37
-13.25
5.75
24.43
41.28
55.68
67.73
77.79
86.07
92.34
96.02
96.44
93.19
86.38
76.7
65.2
52.9
40.44
28.16
16.19
4.87
-4.95
-11.96
-14.87
-13.05
-7.11
1.03
8.63
13.15
13.15
8.95
2.36
-4.11
-8.4
-9.62
-8.21
-5.37
-2.43
-0.24
0.98
1.44
1.58
1.87
2.71
4.15
5.68
6.35
5.07
1.33
-4.33
-10.26
-14.39
-15.23
-12.73
-8.2
-3.71
-1.04
-0.93
-3
-6.19
-9.41
-11.92
-13.47
-14.15
-14.14
-13.71
-13.12
-12.54
-12.09
-11.68
-11.12
-10.26
-9.18
-8.17
-7.62
-7.66
-8
-8
-7.04
-4.96
-2.25
0.13
1.25
0.72
-1.01
-2.97
-4.08
-3.68
-1.71
1.38
5
8.67
12.05
14.93
17.07
18.29
18.54
18.02
17.24
16.81
17.25
18.83
21.42
24.66
28
30.78
32.38
32.16
29.76
25.17
18.83
11.63
4.73
-0.73
-4.05
-5.19
-4.79
-3.97
-3.95
-5.66
-9.61
-15.88
-24.16
-33.78
-43.68
-52.66
-59.66
-64.27
-67.04
-69.4
-72.92
-78.47
-85.6
-92.63
-97.51
-98.93
-96.96
-92.74
-87.73
-82.75
-77.7
-71.87
-64.77
-56.49
-47.62
-38.45
-28.44
-16.34
-1.1
17.01
36.05
53.07
65.58
72.86
76.19
77.91
80.09
83.34
86.92
89.55
90.39
89.3
86.36
81.17
72.55
59.21
40.94
19.5
-1.48
-17.67
-25.74
-24.61
-15.95
-3.32
9.01
17.52
20.25
17.06
9.37
-0.52
-10.12
-17.42
-21.3
-21.85
-20.13
-17.76
-16.32
-16.82
-19.32
-23.03
-26.71
-29.14
-29.48
-27.38
-22.98
-16.69
-9.23
-1.53
5.3
10.21
12.45
11.97
9.33
5.53
1.57
-1.81
-4.21
-5.49
-5.6
-4.54
-2.46
0.31
3.25
5.81
7.69
8.87
9.55
9.97
10.21
10.19
9.68
8.55
6.88
4.95
3.25
2.19
2.01
2.62
3.67
4.71
5.41
5.7
5.75
5.87
6.29
7.08
8.1
9.15
10
10.42
10.22
9.13
6.92
3.48
-0.92
-5.68
-9.82
-12.28
-12.31
-9.81
-5.4
-0.25
4.37
7.56
9.04
9.07
8.18
6.82
5.23
3.51
1.81
0.4
-0.35
-0.14
1.06
2.99
5.17
7.1
8.35
8.72
8.21
7.05
5.65
4.43
3.71
3.55
3.83
4.25
4.55
4.65
4.65
4.79
5.28
6.21
7.53
9.11
10.85
12.7
14.66
16.76
18.96
21.06
22.77
23.77
23.82
22.95
21.57
20.34
19.92
20.75
22.8
25.55
28.2
29.91
30.21
29.11
27.2
25.32
24.32
24.58
25.94
27.74
29.19
29.81
29.69
29.53
30.23
32.44
36.21
40.86
45.21
48.01
48.31
45.86
41.2
35.54
30.51
27.62
27.81
31.01
36
40.59
42.26
39.05
30.32
17.2
2.1
-12.18
-23.67
-32.01
-38.41
-44.77
-52.41
-61.28
-69.93
-76.44
-79.58
-79.6
-78.1
-77.14
-78.1
-81.06
-84.97
-88.35
-90.22
-90.36
-89.23
-87.3
-84.62
-80.75
-75.12
-67.56
-58.48
-48.8
-39.61
-31.68
-25.39
-20.68
-17.32
-15.04
-13.46
-12.11
-10.54
-8.5
-6.12
-4.03
-3.13
-4.25
-7.72
-13.28
-20.11
-27.16
-33.57
-38.73
-42.43
-44.64
-45.52
-45.28
-44.3
-43.01
-41.73
-40.46
-38.62
-35.26
-29.38
-20.44
-8.78
4.48
17.71
29.34
38.01
42.75
42.71
37.28
26.21
10
-9.8
-30.73
-49.83
-64.46
-72.76
-73.93
-68.06
-55.85
-38.46
-17.53
4.97
26.96
46.73
63.38
76.86
87.66
96.22
102.4
105.48
104.71
99.97
92.26
83.54
76.14
71.89
71.64
75.19
81.66
90.03
99.36
108.9
117.97
125.9
131.96
135.46
135.71
132.05
123.89
110.95
93.59
73.06
51.41
31.02
13.85
0.9
-8.06
-14.13
-18.73
-22.91
-27.06
-30.91
-33.84
-35.36
-35.29
-33.85
-31.48
-28.6
-25.52
-22.44
-19.54
-17.11
-15.45
-14.75
-14.9
-15.4
-15.52
-14.62
-12.46
-9.3
-5.85
-3.03
-1.63
-2.06
-4.18
-7.35
-10.57
-12.74
-13.1
-11.42
-8.13
-4.04
-0.2
2.47
3.27
1.82
-1.87
-7.31
-13.66
-19.95
-25.5
-30.12
-34.23
-38.55
-43.64
-49.56
-55.91
-62.09
-67.77
-73.14
-78.91
-85.75
-93.87
-102.61
-110.58
-115.93
-116.94
-112.47
-102.34
-87.35
-69.07
-49.46
-30.53
-13.87
-0.6
8.8
14.43
16.96
17.39
16.97
16.89
18.01
20.72
24.91
30.02
35.38
40.35
44.58
47.98
50.63
52.61
53.93
54.55
54.53
54.17
54.01
54.72
56.72
59.98
63.86
67.26
68.88
67.7
63.21
55.37
44.51
30.99
15.27
-2.1
-20.21
-37.8
-53.52
-66.3
-75.77
-82.27
-86.65
-89.76
-92.11
-93.78
-94.69
-94.88
-94.57
-94.09
-93.58
-92.78
-91.15
-88.21
-83.82
-78.3
-72.3
-66.51
-61.34
-56.76
-52.36
-47.32
-40.6
-31.06
-17.81
-0.72
19.24
39.94
58.67
72.97
81.51
84.55
83.65
81.05
78.69
77.66
78.04
79.2
80.25
80.38
79.09
76.16
71.7
66.06
59.9
54.14
49.73
47.5
47.65
49.66
52.16
53.37
51.62
45.99
36.7
25.03
12.85
1.98
-6.39
-11.93
-14.89
-15.85
-15.27
-13.48
-10.79
-7.73
-5.08
-3.72
-4.3
-6.97
-11.2
-15.99
-20.18
-22.84
-23.66
-22.87
-21.05
-18.73
-16.02
-12.69
-8.26
-2.43
4.51
11.7
17.9
22.02
23.6
22.96
21.16
19.37
18.53
19.03
20.73
23.22
26.06
28.9
31.47
33.47
34.57
34.5
33.27
31.38
29.59
28.67
28.94
29.87
30.08
27.74
21.16
9.46
-7.01
-26.73
-47.41
-66.62
-82.5
-93.98
-100.71
-102.77
-100.28
-93.33
-82.15
-67.47
-50.67
-33.59
-18.09
-5.39
4.39
12.08
19
26.36
34.78
44.28
54.42
64.51
73.68
80.9
85.2
85.92
83.15
77.88
71.8
66.54
63.04
61.05
59.24
55.84
49.39
39.37
26.38
11.96
-2.03
-14.01
-23.12
-29.37
-33.41
-35.99
-37.54
-37.98
-36.94
-34.26
-30.36
-26.31
-23.4
-22.5
-23.61
-25.81
-27.78
-28.35
-27.17
-24.65
-21.7
-19.14
-17.29
-15.89
-14.44
-12.57
-10.31
-8.14
-6.7
-6.4
-7.29
-9.06
-11.19
-13.28
-15.1
-16.65
-18.08
-19.49
-20.9
-22.2
-23.3
-24.22
-25.09
-26.11
-27.39
-28.82
-30.06
-30.72
-30.51
-29.42
-27.69
-25.74
-23.97
-22.71
-22.2
-22.57
-23.81
-25.76
-28.04
-30.11
-31.52
-32.06
-31.77
-30.97
-29.93
-28.7
-27.07
-24.58
-20.87
-15.91
-10.18
-4.59
-0.17
2.4
3.07
2.37
1.15
0.07
-0.54
-0.61
0.05
2.09
6.53
14.31
25.64
39.57
54.14
66.92
75.77
79.31
77.19
69.85
58.38
44.2
28.88
13.91
0.44
-10.86
-19.84
-26.71
-31.93
-35.94
-39.15
-41.81
-43.99
-45.49
-45.85
-44.6
-41.46
-36.65
-30.95
-25.38
-20.82
-17.65
-15.7
-14.52
-13.82
-13.65
-14.13
-15.1
-15.68
-14.56
-10.5
-3.29
5.96
15.05
21.68
24.34
22.89
18.19
11.49
3.83
-4.12
-11.63
-17.66
-20.94
-20.58
-16.65
-10.46
-4.05
0.72
2.94
2.93
1.98
1.56
2.67
5.64
10.06
15.13
19.97
23.77
25.87
25.76
23.13
17.93
10.46
1.39
-8.38
-17.94
-26.49
-33.43
-38.22
-40.17
-38.53
-32.6
-22.32
-8.46
7.17
22.31
34.72
42.95
46.51
45.76
41.53
34.7
26.11
16.55
6.84
-2.13
-9.55
-14.86
-17.91
-18.93
-18.43
-17.02
-15.24
-13.5
-12.23
-11.88
-12.91
-15.66
-19.95
-24.96
-29.2
-30.94
-28.83
-22.49
-12.77
-1.41
9.52
18.35
24.17
26.91
27.18
25.96
24.37
23.52
24.24
26.89
31.22
36.45
41.55
45.56
47.79
47.97
46.17
42.8
38.51
34.09
30.17
27
24.36
21.66
18.4
14.46
10.29
6.54
3.65
1.53
-0.38
-2.63
-5.35
-8.08
-10.02
-10.48
-9.23
-6.55
-2.96
1.12
5.52
10.29
15.47
20.81
25.86
30.1
33.2
35.21
36.47
37.37
37.98
38.04
37.01
34.48
30.56
26.02
22.02
19.61
19.21
20.38
22.09
23.22
23.05
21.45
18.66
14.92
10.19
4.25
-3.03
-11.29
-19.68
-27.1
-32.53
-35.54
-36.29
-35.47
-33.85
-32.08
-30.56
-29.41
-28.69
-28.34
-28.27
-28.26
-27.95
-26.89
-24.77
-21.48
-17.29
-12.77
-8.68
-5.75
-4.39
-4.54
-5.66
-6.94
-7.69
-7.63
-7.07
-6.71
-7.29
-9.17
-12.11
-15.48
-18.51
-20.71
-21.94
-22.43
-22.46
-22.2
-21.72
-21.04
-20.21
-19.4
-18.77
-18.38
-18.11
-17.78
-17.25
-16.58
-15.96
-15.68
-15.85
-16.25
-16.43
-15.77
-13.81
-10.41
-5.89
-0.91
3.68
7.03
8.47
7.66
4.63
-0.19
-6.03
-11.97
-17.1
-20.72
-22.49
-22.4
-20.77
-18.02
-14.67
-11.24
-8.19
-5.82
-4.32
-3.56
-3.26
-3.06
-2.63
-1.9
-1.03
-0.35
-0.2
-0.89
-2.62
-5.52
-9.58
-14.41
-19.07
-21.99
-21.43
-16.1
-5.96
7.58
21.98
34.44
42.98
46.89
46.81
44.1
40.19
36.05
32.15
28.56
25.25
22.34
20.01
18.47
17.79
17.86
18.31
18.66
18.43
17.3
15.2
12.29
8.89
5.36
2
-1.02
-3.72
-6.39
-9.47
-13.47
-18.7
-25.13
-32.06
-38.29
-42.3
-42.8
-39.2
-31.89
-22.25
-12.23
-3.78
1.73
3.92
3.41
1.52
-0.31
-1.04
-0.34
1.47
3.56
5.02
5.11
3.44
0.03
-4.74
-10.24
-15.7
-20.28
-23.22
-24.01
-22.59
-19.34
-15.12
-10.9
-7.57
-5.67
-5.2
-5.75
-6.57
-7
-6.66
-5.73
-4.94
-5.34
-7.77
-12.24
-17.71
-22.17
-23.41
-19.95
-11.79
-0.5
11.39
21.41
28.09
31.3
31.94
31.3
30.27
29.15
27.77
25.93
23.77
21.93
21.15
21.97
24.37
27.68
30.85
32.88
33.24
32
29.8
27.49
25.77
24.88
24.55
24.21
23.24
21.35
18.62
15.51
12.67
10.66
9.74
9.72
10.09
10.13
9.11
6.47
1.95
-4.24
-11.35
-18.03
-22.64
-23.63
-20.21
-12.73
-2.82
7.11
14.62
18.07
17.14
12.76
6.52
-0.01
-5.79
-10.38
-13.72
-15.72
-16.11
-14.52
-10.81
-5.26
1.33
7.91
13.49
17.54
20.08
21.62
22.84
24.31
26.32
28.76
31.26
33.43
34.97
35.9
36.48
37.11
38.14
39.78
42.07
44.92
48.18
51.58
54.64
56.62
56.6
53.78
47.93
39.6
30.11
20.98
13.39
7.71
3.44
-0.32
-4.29
-8.54
-12.54
-15.51
-16.93
-16.86
-15.82
-14.52
-13.43
-12.61
-11.79
-10.68
-9.15
-7.33
-5.55
-4.12
-3.28
-3.06
-3.41
-4.18
-5.27
-6.58
-8.11
-9.96
-12.38
-15.73
-20.3
-26.1
-32.66
-39.08
-44.26
-47.23
-47.6
-45.63
-42.2
-38.43
-35.42
-33.9
-34.15
-35.88
-38.36
-40.53
-41.25
-39.62
-35.3
-28.68
-20.74
-12.7
-5.49
0.61
5.93
11.11
16.45
21.56
25.43
26.92
25.52
21.72
16.86
12.59
10.07
9.52
10.22
10.95
10.67
8.95
6.08
2.8
-0.06
-1.98
-2.94
-3.32
-3.76
-4.79
-6.65
-9.15
-11.79
-14
-15.35
-15.71
-15.2
-14.15
-12.98
-12.15
-12.11
-13.21
-15.61
-19.27
-23.92
-29.11
-34.33
-39.02
-42.69
-44.89
-45.4
-44.22
-41.66
-38.19
-34.28
-30.19
-25.98
-21.62
-17.15
-12.82
-9.03
-6.12
-4.26
-3.34
-3.13
-3.26
-3.35
-2.97
-1.62
1.11
5.25
10.22
14.92
18.03
18.73
17.02
13.8
10.41
7.95
6.76
6.33
5.66
3.76
0.1
-5.23
-11.62
-18.18
-23.97
-28.16
-30.21
-29.99
-27.9
-24.83
-21.84
-19.81
-19.07
-19.27
-19.67
-19.59
-18.78
-17.63
-16.73
-16.42
-16.38
-15.64
-12.98
-7.54
0.69
10.87
21.44
30.79
37.62
41.37
42.3
41.37
39.89
39.07
39.73
42.16
46.22
51.46
57.32
63.24
68.64
73.11
76.53
79.22
81.87
85.31
89.93
95.44
100.76
104.51
105.64
104.05
100.69
97.1
94.77
94.44
95.82
97.77
98.83
97.69
93.63
86.67
77.53
67.45
57.86
50
44.38
40.45
36.76
31.57
23.57
12.64
-0.18
-13.26
-25.21
-35.55
-44.72
-53.56
-62.57
-71.57
-79.74
-86.16
-90.32
-92.41
-93.13
-93.29
-93.37
-93.37
-93
-91.92
-90.05
-87.61
-85
-82.53
-80.34
-78.38
-76.6
-75.02
-73.57
-72.03
-69.93
-66.73
-62.17
-56.48
-50.38
-44.76
-40.23
-36.82
-34.11
-31.59
-29
-26.48
-24.34
-22.86
-21.99
-21.47
-20.98
-20.38
-19.72
-19.14
-18.67
-18.13
-17.2
-15.59
-13.26
-10.52
-7.9
-6.02
-5.21
-5.39
-5.94
-5.99
-4.78
-1.92
2.42
7.69
13.22
18.51
23.33
27.67
31.5
34.65
36.79
37.61
37.03
35.32
33.06
30.87
29.07
27.66
26.35
24.95
23.57
22.73
23.08
25.02
28.39
32.4
35.93
38.03
38.32
37.07
35.03
32.97
31.49
30.74
30.57
30.67
30.65
30.15
28.89
26.68
23.59
20.05
16.78
14.71
14.56
16.53
20.07
23.95
26.67
26.95
24.33
19.38
13.54
8.55
5.58
4.71
4.82
4.09
0.99
-4.94
-12.93
-21.43
-28.95
-34.8
-39.1
-42.38
-44.98
-46.79
-47.44
-46.78
-44.99
-42.36
-38.8
-33.56
-25.63
-14.54
-1.12
12.45
23.31
29.17
29.28
24.64
17.47
10.12
4.25
0.53
-1.2
-1.48
-0.92
-0.13
0.23
-0.39
-2.29
-5.3
-8.71
-11.42
-12.37
-10.83
-6.68
-0.46
6.88
14.17
20.31
24.61
26.87
27.39
26.84
25.88
24.92
24.01
22.98
21.68
20.19
18.79
17.83
17.53
17.85
18.63
19.6
20.53
21.18
21.28
20.6
19.02
16.77
14.28
12.1
10.5
9.31
7.92
5.52
1.49
-4.31
-11.46
-19.2
-26.69
-33.34
-38.92
-43.49
-47.17
-50.07
-52.19
-53.4
-53.54
-52.64
-50.89
-48.73
-46.64
-45.02
-43.96
-43.2
-42.2
-40.33
-37.09
-32.21
-25.81
-18.32
-10.43
-3.03
2.94
6.79
8.24
7.64
5.92
4.27
3.76
4.82
7.29
10.47
13.68
16.53
19.2
22.11
25.62
29.84
34.55
39.47
44.41
49.41
54.54
59.72
64.56
68.44
70.67
70.69
68.13
62.77
54.58
43.82
31.25
18.16
6.04
-3.9
-11.26
-16.58
-20.89
-25.05
-29.08
-32.08
-32.83
-30.75
-26.51
-22
-19.52
-20.66
-25.44
-32.25
-38.62
-42.31
-42.29
-38.91
-33.51
-27.64
-22.47
-18.56
-16.11
-15.31
-16.34
-19.31
-24.02
-29.84
-36
-41.91
-47.42
-52.76
-58.28
-64.07
-69.81
-74.96
-79.07
-82.03
-84.14
-85.81
-87.22
-88.11
-87.71
-85.17
-79.92
-72.02
-62.31
-52.2
-43.32
-37.07
-34.3
-35.05
-38.54
-43.13
-46.6
-46.41
-40.38
-27.35
-7.65
16.77
42.83
67.03
86.11
97.68
100.42
94.37
80.98
62.99
43.88
27
14.58
7.17
3.76
2.63
2.26
1.96
1.9
2.55
4.18
6.59
9.37
12.2
15.05
18.03
21.05
23.76
25.43
25.37
23.21
19
13.18
6.31
-1.08
-8.53
-15.48
-21.03
-24.16
-24.13
-21.19
-16.99
-14.21
-15.73
-23.43
-37.47
-56.28
-77.33
-97.95
-115.98
-129.77
-137.9
-139.08
-132.38
-117.8
-96.49
-70.7
-43.12
-16.12
8.7
30.62
49.48
65.54
79.18
90.87
100.95
109.4
115.71
118.93
118.23
113.29
104.75
94.01
82.78
72.46
63.72
56.46
50.13
44.07
37.97
32.01
26.84
23.45
22.84
25.68
32
41.07
51.54
61.74
70.26
76.23
79.5
80.45
79.65
77.68
74.99
72.03
69.34
67.55
67.18
68.45
71.13
74.67
78.39
81.75
84.59
87.21
90.28
94.65
101.04
109.62
119.61
129.28
136.25
138.15
133.29
121.23
102.87
80.04
54.99
29.75
5.87
-15.67
-34.35
-49.91
-62.16
-70.97
-76.32
-78.4
-77.81
-75.46
-72.49
-69.91
-68.3
-67.67
-67.62
-67.64
-67.32
-66.58
-65.48
-64.11
-62.43
-60.35
-57.78
-54.9
-52.09
-49.78
-48.19
-47.22
-46.43
-45.3
-43.54
-41.18
-38.57
-36.12
-34.08
-32.51
-31.36
-30.7
-30.69
-31.56
-33.39
-35.98
-38.86
-41.43
-43.14
-43.6
-42.69
-40.45
-37.15
-33.14
-28.93
-25.06
-21.86
-19.45
-17.64
-16.09
-14.54
-12.95
-11.52
-10.57
-10.27
-10.56
-11.08
-11.41
-11.18
-10.23
-8.61
-6.54
-4.28
-2.08
-0.17
1.37
2.55
3.59
4.72
6.08
7.58
8.97
10.03
10.85
11.88
13.79
17.07
21.7
27.12
32.47
36.98
40.25
42.34
43.56
44.09
43.9
42.84
40.77
37.85
34.5
31.17
28.12
25.22
22.06
18.24
13.67
8.64
3.73
-0.52
-3.88
-6.46
-8.59
-10.57
-12.43
-14.01
-15.06
-15.43
-15.16
-14.43
-13.36
-12
-10.26
-8.02
-5.3
-2.29
0.76
3.62
6.25
8.82
11.55
14.5
17.48
20
21.54
21.8
20.98
19.73
18.99
19.58
21.78
25.27
29.21
32.69
35.09
36.3
36.52
36
34.71
32.3
28.28
22.16
13.54
1.98
-13.19
-32.7
-56.96
-85.36
-115.91
-145.5
-170.61
-188.44
-197.6
-198.33
-192.08
-180.72
-166.04
-149.33
-131.48
-113.2
-95.11
-77.84
-61.93
-47.74
-35.38
-24.71
-15.25
-6.28
2.91
12.89
23.77
35.18
46.38
56.53
64.93
71.3
75.8
78.92
81.4
83.94
87.07
90.96
95.4
99.78
103.3
105.16
104.76
101.86
96.63
89.56
81.29
72.41
63.38
54.56
46.24
38.64
31.99
26.3
21.49
17.29
13.45
9.74
6.07
2.43
-1.11
-4.49
-7.61
-10.29
-12.3
-13.35
-13.23
-11.85
-9.37
-6.19
-2.91
-0.28
0.98
0.28
-2.56
-7.31
-13.3
-19.64
-25.49
-30.3
-33.91
-36.57
-38.62
-40.37
-41.86
-42.94
-43.37
-43.11
-42.41
-41.74
-41.55
-41.94
-42.6
-42.97
-42.56
-41.2
-39.12
-36.66
-34.03
-31.16
-27.72
-23.48
-18.45
-13
-7.56
-2.44
2.39
7.18
12.14
17.21
22
25.97
28.73
30.18
30.59
30.33
29.67
28.63
27.11
25.03
22.51
19.84
17.29
14.91
12.47
9.6
6.05
1.84
-2.64
-6.82
-10.27
-12.84
-14.8
-16.66
-18.94
-21.86
-25.15
-28.11
-29.77
-29.29
-26.38
-21.43
-15.38
-9.39
-4.31
-0.46
2.24
4.12
5.36
5.93
5.64
4.46
2.57
0.52
-0.88
-0.7
1.95
7.64
16.4
27.63
40.19
52.73
64.02
73.36
80.54
85.66
88.86
90.25
89.97
88.44
86.31
84.31
83.01
82.6
83.15
84.81
87.94
92.86
99.26
105.71
109.65
108.09
98.85
81.65
58.36
32.29
6.91
-15.36
-33.55
-47.74
-58.4
-65.75
-69.79
-70.61
-68.82
-65.58
-62.29
-60.17
-59.86
-61.44
-64.46
-68.17
-71.65
-73.91
-74.15
-71.95
-67.42
-61.14
-53.97
-46.75
-40.22
-34.96
-31.41
-29.85
-30.31
-32.48
-35.55
-38.37
-39.79
-38.96
-35.84
-31.2
-26.47
-23.09
-21.9
-22.74
-24.53
-25.86
-25.77
-24.23
-22.15
-20.94
-21.73
-24.92
-29.98
-35.89
-41.54
-46.26
-49.87
-52.54
-54.57
-56.09
-57.08
-57.38
-56.82
-55.2
-52.37
-48.3
-43.18
-37.6
-32.53
-29.21
-28.69
-31.31
-36.54
-42.99
-49
-53.17
-54.72
-53.48
-49.6
-43.28
-34.69
-24.19
-12.46
-0.58
10.38
19.69
27.25
33.39
38.4
42.24
44.42
44.52
42.53
39.22
35.83
33.51
32.8
33.45
34.73
35.91
36.57
36.61
35.93
34.18
30.89
25.76
19.09
11.93
5.65
1.38
-0.46
-0.28
1.01
2.53
3.93
5.34
7.17
9.74
12.99
16.54
19.87
22.64
24.86
26.84
28.93
31.27
33.72
35.75
36.79
36.38
34.41
31.22
27.49
24.05
21.53
20.3
20.35
21.47
23.25
25.22
26.88
27.67
27.18
25.27
22.16
18.36
14.45
10.73
7.09
3.09
-1.86
-8.07
-15.41
-23.34
-31.06
-37.81
-43.17
-47.17
-50.28
-53.3
-57
-61.8
-67.54
-73.46
-78.45
-81.42
-81.59
-78.75
-73.2
-65.64
-57.11
-48.78
-41.78
-36.91
-34.49
-34.25
-35.54
-37.66
-40.11
-42.69
-45.35
-47.94
-50.07
-51.31
-51.42
-50.44
-48.46
-45.13
-39.3
-29.18
-13.01
10.08
39.34
72.33
105.46
134.76
156.8
169.17
170.86
162.29
145.24
122.44
97.04
71.93
49.31
30.43
15.81
5.44
-0.94
-3.77
-3.77
-1.91
0.81
3.52
5.69
7.23
8.31
9.19
10.13
11.33
13.04
15.54
19.11
23.85
29.48
35.33
40.54
44.38
46.61
47.61
48.16
48.97
50.29
51.7
52.27
51.01
47.36
41.4
33.82
25.53
17.34
9.68
2.59
-4.13
-10.56
-16.54
-21.68
-25.54
-27.86
-28.79
-28.84
-28.51
-28.13
-27.62
-26.59
-24.61
-21.52
-17.6
-13.41
-9.55
-6.41
-4.07
-2.41
-1.21
-0.37
0.2
0.65
1.27
2.53
4.83
8.4
13
18.1
22.91
26.75
29.21
30.26
30.12
29.08
27.3
24.74
21.29
16.85
11.51
5.63
-0.22
-5.42
-9.41
-11.85
-12.7
-12.18
-10.77
-9.01
-7.36
-6.09
-5.28
-4.77
-4.43
-4.13
-3.91
-3.88
-4.15
-4.81
-5.85
-7.23
-8.92
-10.95
-13.38
-16.34
-19.88
-23.93
-28.13
-31.86
-34.38
-35.07
-33.7
-30.56
-26.31
-21.77
-17.6
-14.18
-11.69
-10.13
-9.45
-9.48
-9.95
-10.57
-11.19
-11.95
-13.27
-15.63
-19.28
-23.99
-29.07
-33.61
-36.77
-38.02
-37.15
-34.29
-29.77
-24.18
-18.31
-13.07
-9.26
-7.41
-7.55
-9.24
-11.71
-14.09
-15.69
-16.2
-15.77
-14.92
-14.18
-13.9
-14.02
-14.07
-13.44
-11.67
-8.7
-4.8
-0.41
4.2
8.9
13.63
18.17
21.91
24.04
23.74
20.54
14.49
6.15
-3.52
-13.38
-22.23
-28.9
-32.4
-32.08
-27.85
-20.31
-10.56
0.08
10.37
19.5
26.98
32.65
36.49
38.56
39.03
38.23
36.66
34.82
33.06
31.38
29.49
26.88
23.13
18.06
11.91
5.29
-1.05
-6.41
-10.46
-13.33
-15.47
-17.52
-19.95
-22.98
-26.53
-30.27
-33.69
-36.2
-37.29
-36.56
-34
-29.99
-25.25
-20.66
-16.95
-14.47
-13.12
-12.51
-12.14
-11.71
-11.13
-10.49
-9.94
-9.52
-9.15
-8.58
-7.5
-5.6
-2.65
1.38
6.28
11.61
16.8
21.34
24.78
26.84
27.4
26.48
24.26
21.12
17.61
14.32
11.64
9.66
8.15
6.69
4.91
2.79
0.48
-1.66
-3.32
-4.35
-4.7
-4.32
-3.12
-0.94
2.3
6.53
11.47
16.65
21.55
25.76
29.12
31.66
33.61
35.27
36.85
38.35
39.58
40.15
39.67
38.03
35.47
32.73
30.68
30.05
31.09
33.47
36.44
39.17
41.08
41.92
41.73
40.64
38.69
35.83
32.03
27.44
22.38
17.24
12.28
7.55
2.99
-1.38
-5.22
-7.95
-8.91
-7.74
-4.52
0.22
5.67
11.1
15.91
19.72
22.28
23.49
23.37
22.25
20.73
19.52
19.25
20.23
22.37
25.21
28.16
30.63
32.14
32.34
31.07
28.37
24.44
19.69
14.56
9.57
5.26
2.07
0.32
0.05
0.95
2.24
2.82
1.57
-2.28
-8.79
-17.22
-26.26
-34.46
-40.71
-44.5
-45.89
-45.35
-43.39
-40.47
-36.99
-33.37
-30.08
-27.53
-25.94
-25.2
-24.88
-24.46
-23.56
-22.08
-20.17
-18.16
-16.32
-14.75
-13.4
-12.12
-10.74
-9.18
-7.45
-5.6
-3.75
-2
-0.47
0.79
1.76
2.47
3.04
3.54
4.11
4.75
5.41
5.98
6.25
6.09
5.47
4.52
3.49
2.7
2.32
2.36
2.69
3.18
3.75
4.43
5.27
6.31
7.5
8.68
9.68
10.41
10.85
11.04
11.1
11.19
11.47
12.1
13.05
14.2
15.31
16.06
16.3
16.02
15.36
14.48
13.56
12.67
11.83
11
10.14
9.21
8.17
6.98
5.63
4.07
2.22
-0.01
-2.68
-5.78
-9.09
-12.39
-15.39
-17.96
-20.09
-21.83
-23.25
-24.32
-25
-25.25
-25.11
-24.7
-24.09
-23.33
-22.39
-21.26
-19.94
-18.51
-16.96
-15.28
-13.4
-11.27
-8.99
-6.7
-4.56
-2.67
-1
0.57
2.2
4.04
6.26
9.01
12.48
16.81
22.05
28.05
34.58
41.33
48.01
54.39
60.19
65.16
69.06
71.87
73.82
75.4
77.19
79.68
82.91
86.47
89.53
91.09
90.38
87.02
81.15
73.14
63.42
52.21
39.62
25.82
11.32
-2.97
-16.02
-27.15
-36.41
-44.48
-52.42
-60.95
-70.04
-78.97
-86.61
-92.07
-94.94
-95.4
-93.92
-90.99
-86.96
-82
-76.17
-69.51
-62.03
-53.83
-45.13
-36.34
-27.99
-20.59
-14.38
-9.32
-5.01
-1.06
2.76
6.32
9.24
11.2
12.12
12.35
12.43
12.93
14.09
15.84
17.84
19.76
21.41
22.71
23.54
23.6
22.5
19.99
16.11
11.25
5.81
-0.01
-6.39
-13.62
-21.64
-29.74
-36.6
-40.79
-41.43
-38.64
-33.34
-26.79
-19.87
-12.83
-5.36
2.79
11.43
19.73
26.5
30.72
32.03
30.92
28.5
26.04
24.43
23.88
23.81
23.21
21.08
16.98
11.25
4.98
-0.52
-4.37
-6.61
-8.19
-10.56
-14.93
-21.69
-30.29
-39.56
-48.19
-55.24
-60.2
-63
-63.83
-63.05
-61.18
-58.83
-56.59
-54.79
-53.41
-52.12
-50.42
-47.96
-44.61
-40.35
-35.16
-28.98
-21.87
-14.25
-7.05
-1.49
1.36
1.12
-1.61
-5.47
-8.92
-10.85
-10.9
-9.38
-6.95
-4.24
-1.65
0.6
2.37
3.62
4.39
4.82
5.1
5.37
5.66
5.93
6.25
6.81
7.98
10.01
12.89
16.27
19.55
22.19
23.74
24.06
23.13
20.96
17.55
12.76
6.53
-1.11
-9.89
-19.36
-28.86
-37.61
-44.85
-49.94
-52.45
-52.31
-49.84
-45.8
-41.15
-36.78
-33.27
-30.66
-28.57
-26.51
-24.16
-21.6
-19.22
-17.47
-16.6
-16.62
-17.2
-17.99
-18.57
-18.66
-18.06
-16.83
-15.22
-13.64
-12.4
-11.49
-10.44
-8.53
-5.12
0
6.5
13.69
20.8
27.34
33.16
38.35
43.08
47.42
51.33
54.66
57.25
59.02
59.98
60.22
59.86
58.9
57.21
54.49
50.41
44.83
37.91
30.23
22.65
16.06
11.05
7.79
5.99
5.04
4.34
3.44
2.15
0.55
-1.17
-2.86
-4.41
-5.77
-6.87
-7.54
-7.65
-7.14
-6.14
-4.96
-3.9
-3.24
-3.08
-3.36
-3.91
-4.55
-5.04
-5.18
-4.76
-3.69
-2.06
-0.21
1.46
2.58
3.05
3.01
2.8
2.65
2.65
2.64
2.41
1.79
0.83
-0.33
-1.44
-2.33
-2.94
-3.3
-3.44
-3.44
-3.36
-3.31
-3.39
-3.68
-4.17
-4.82
-5.53
-6.18
-6.68
-6.98
-7.07
-6.97
-6.79
-6.6
-6.5
-6.5
-6.59
-6.73
-6.9
-7.12
-7.5
-8.18
-9.22
-10.6
-12.11
-13.42
-14.17
-14.1
-13.18
-11.66
-10.03
-8.85
-8.63
-9.61
-11.78
-14.88
-18.52
-22.32
-25.95
-29.19
-31.9
-34.05
-35.65
-36.76
-37.5
-38.07
-38.66
-39.39
-40.28
-41.17
-41.83
-42.09
-42.02
-41.91
-42.17
-43.06
-44.45
-45.71
-45.9
-43.98
-39.16
-31.04
-19.67
-5.51
10.67
27.9
45.13
61.47
76.15
88.53
98.03
104.06
106.07
103.56
96.14
83.66
66.31
44.75
20.33
-4.88
-28.26
-47.08
-59.06
-62.9
-58.52
-46.96
-30.14
-10.47
9.63
28.03
43.2
54.53
62.14
66.72
69.18
70.23
70.25
69.31
67.22
63.76
58.86
52.7
45.76
38.67
32.06
26.28
21.35
16.97
12.8
8.58
4.17
-0.46
-5.33
-10.36
-15.28
-19.63
-22.95
-25.05
-26.27
-27.5
-29.86
-34.17
-40.5
-48.04
-55.44
-61.3
-64.65
-65.15
-63.06
-58.97
-53.62
-47.69
-41.9
-36.9
-33.14
-30.65
-28.89
-26.89
-23.53
-18.13
-10.63
-1.63
7.98
17.38
26.11
34.12
41.57
48.7
55.63
62.47
69.29
76.12
82.85
89.13
94.44
98.29
100.48
101.23
101.15
100.93
101.04
101.43
101.55
100.59
97.76
92.57
85.01
75.42
64.44
52.84
41.35
30.66
21.27
13.43
7.11
2.01
-2.28
-6.16
-9.81
-13.22
-16.21
-18.57
-20.22
-21.29
-22.01
-22.63
-23.23
-23.6
-23.32
-21.93
-19.18
-15.31
-11.13
-7.79
-6.47
-7.83
-11.7
-17.15
-22.85
-27.6
-30.78
-32.48
-33.31
-34.14
-35.71
-38.66
-43.39
-50.12
-58.72
-68.61
-78.74
-87.85
-94.82
-98.94
-100.04
-98.36
-94.4
-88.66
-81.72
-74.19
-66.66
-59.7
-53.79
-49.2
-45.95
-43.7
-41.78
-39.24
-35.21
-29.27
-21.83
-14.07
-7.62
-3.95
-3.85
-7.23
-13.23
-20.66
-28.31
-35.25
-40.9
-45.13
-48.26
-51.13
-54.98
-61.2
-70.96
-84.74
-102.05
-121.34
-140.29
-156.26
-166.86
-170.4
-166.03
-153.67
-133.79
-107.21
-75.2
-39.56
-2.63
32.98
64.88
91.54
112.46
128.1
139.28
146.76
150.93
152
150.29
146.47
141.61
136.74
132.52
128.87
125.13
120.36
113.91
105.68
96.19
86.3
76.83
68.32
60.92
54.51
48.9
43.97
39.66
35.93
32.72
29.85
27.19
24.59
21.99
19.36
16.73
14.13
11.64
9.32
7.16
5.09
2.96
0.6
-2.09
-5.05
-8.1
-10.89
-13.01
-14.08
-13.82
-12.16
-9.31
-5.77
-2.17
0.89
3.06
4.3
4.81
4.88
4.74
4.5
4.19
3.87
3.61
3.57
3.9
4.65
5.81
7.22
8.69
10.01
11.05
11.79
12.32
12.75
13.2
13.7
14.2
14.65
14.99
15.28
15.54
15.79
15.93
15.85
15.58
15.39
15.81
17.46
20.7
25.37
30.76
35.77
39.3
40.69
39.86
37.21
33.4
29.11
24.89
21.17
18.25
16.28
15.16
14.53
13.96
13.11
12.01
11.07
10.77
11.36
12.58
13.77
14.15
13.33
11.54
9.47
7.98
7.55
8.08
8.91
9.11
7.84
4.63
-0.55
-7.34
-15.15
-23.24
-30.81
-37.17
-41.79
-44.54
-45.64
-45.65
-45.27
-45.04
-45.25
-45.71
-45.98
-45.45
-43.63
-40.35
-35.78
-30.48
-25.13
-20.41
-16.77
-14.27
-12.69
-11.66
-10.91
-10.35
-10.14
-10.51
-11.61
-13.32
-15.22
-16.79
-17.59
-17.45
-16.49
-15.07
-13.53
-12.06
-10.65
-9.17
-7.55
-5.89
-4.45
-3.51
-3.15
-3.14
-3.1
-2.67
-1.72
-0.51
0.4
0.37
-1.04
-3.97
-8.2
-13.26
-18.49
-23.17
-26.65
-28.4
-28.22
-26.18
-22.72
-18.51
-14.39
-11.4
-10.55
-12.72
-18.23
-26.56
-36.26
-45.21
-51.28
-53.03
-50.19
-43.57
-34.71
-25.24
-16.39
-8.83
-2.69
2.26
6.38
10.01
13.33
16.37
18.96
20.9
22.03
22.45
22.58
23.13
24.87
28.39
33.81
40.72
48.19
55.14
60.58
63.79
64.44
62.5
58.22
52.11
44.96
37.84
31.86
27.86
26.11
26.1
26.88
27.45
27.24
26.23
24.77
23.11
21.08
18.06
13.36
6.76
-1.08
-8.59
-13.88
-15.46
-12.95
-7.2
0.12
7.28
13.26
18
22.32
27.36
33.99
42.37
51.8
60.81
67.6
70.45
68.2
60.58
48.33
33.08
16.88
1.8
-10.69
-20
-26.45
-31.07
-35.11
-39.51
-44.53
-49.77
-54.41
-57.73
-59.44
-59.74
-59.14
-58.2
-57.36
-56.97
-57.43
-59.19
-62.55
-67.47
-73.41
-79.5
-85
-89.76
-94.34
-99.65
-106.37
-114.21
-121.7
-126.51
-126.15
-118.96
-104.73
-85.02
-62.73
-41.27
-23.61
-11.38
-4.4
-0.84
2.14
7.53
17.65
33.81
56.29
84.56
117.37
152.69
187.55
218.23
240.86
252.48
251.95
240.37
220.57
196.04
169.72
143.44
117.9
93.37
70.2
49.05
30.61
15.24
2.74
-7.54
-16.23
-23.7
-30.01
-35.16
-39.37
-43.18
-47.21
-51.78
-56.68
-61.15
-64.21
-65.11
-63.62
-60.13
-55.41
-50.42
-45.92
-42.46
-40.25
-39.32
-39.66
-41.22
-44.04
-48.13
-53.53
-60.08
-67.48
-75.23
-82.77
-89.56
-95.19
-99.42
-102.21
-103.66
-104.03
-103.72
-103.34
-103.6
-105.08
-107.9
-111.43
-114.06
-113.56
-107.79
-95.57
-77.39
-55.4
-32.84
-12.89
2.27
11.99
16.93
18.5
18.18
17.28
16.9
18.07
21.79
28.64
38.46
50.08
61.6
70.98
76.76
78.48
76.6
72.22
66.49
60.33
54.3
48.72
43.81
39.76
36.65
34.44
32.83
31.33
29.45
26.89
23.63
19.98
16.38
13.25
10.75
8.71
6.65
4
0.33
-4.5
-10.2
-16.03
-20.84
-23.32
-22.38
-17.61
-9.56
0.38
10.31
18.59
24.35
27.69
29.38
30.25
30.68
30.47
29.06
26.15
21.99
17.47
13.69
11.49
10.95
11.45
11.98
11.65
10.14
7.77
5.3
3.38
2.27
1.66
0.94
-0.51
-2.94
-6.3
-10.27
-14.58
-18.97
-22.95
-25.7
-25.98
-22.55
-14.81
-3.29
10.25
23.38
33.84
40.34
42.73
41.85
38.74
34.26
28.8
22.57
15.91
9.48
4.2
0.85
-0.37
0.07
1.17
1.85
1.47
0.05
-1.79
-3.22
-3.68
-3.19
-2.24
-1.61
-1.87
-3.24
-5.54
-8.37
-11.32
-14.15
-16.81
-19.42
-22.26
-25.62
-29.71
-34.45
-39.29
-43.2
-44.81
-42.87
-36.77
-26.85
-14.44
-1.41
10.41
19.8
26.43
30.72
33.29
34.63
34.84
33.84
31.64
28.54
25.1
21.9
19.3
17.23
15.43
13.59
11.63
9.6
7.63
5.69
3.61
1.14
-1.89
-5.43
-9.28
-13.19
-16.98
-20.5
-23.62
-26.14
-27.82
-28.53
-28.33
-27.53
-26.66
-26.28
-26.88
-28.69
-31.7
-35.46
-39.1
-41.37
-40.97
-36.9
-28.96
-17.93
-5.43
6.57
16.35
22.84
25.74
25.32
22.18
17.02
10.59
3.69
-2.79
-8.12
-11.89
-14.19
-15.58
-16.89
-18.85
-21.9
-26.04
-30.94
-36.18
-41.45
-46.72
-52.25
-58.45
-65.7
-74.11
-83.45
-93.18
-102.72
-111.6
-119.79
-127.67
-135.92
-145.26
-156.07
-168.13
-180.45
-191.28
-198.31
-199.09
-191.64
-174.96
-149.46
-116.78
-79.4
-39.9
-0.45
37.44
72.79
104.83
132.84
156.11
174.17
187.04
195.22
199.49
200.56
198.91
194.76
188.27
179.72
169.68
158.84
147.87
137.2
126.96
117.03
107.2
97.37
87.58
78.02
68.88
60.3
52.26
44.59
37
29.16
20.87
12.25
3.96
-2.84
-6.74
-6.6
-2.12
5.87
15.55
24.68
31.36
34.67
34.79
32.69
29.51
26.04
22.53
18.84
14.9
10.99
7.75
5.81
5.48
6.45
7.92
9.01
9.16
8.38
7.1
5.86
4.83
3.75
2.08
-0.62
-4.31
-8.37
-11.82
-13.76
-13.72
-11.9
-9.07
-6.33
-4.77
-5.15
-7.7
-12.06
-17.11
-21.11
-22.15
-18.64
-10.12
2.45
16.89
30.56
41.38
48.57
52.72
55.16
57.08
58.91
60.2
60.19
58.47
55.49
52.56
51.46
53.71
60.05
70.05
82.01
93.24
100.53
100.86
92.24
74.27
48.49
18.05
-13.02
-40.89
-62.8
-77.49
-85.25
-87.24
-84.89
-79.37
-71.33
-61.04
-48.79
-35.16
-21.21
-8.31
2.2
9.32
12.74
12.8
10.33
6.41
2.17
-1.38
-3.45
-3.49
-1.46
2.2
6.53
10.26
12.2
11.63
8.5
3.35
-2.77
-8.78
-13.81
-17.48
-19.91
-21.67
-23.41
-25.66
-28.65
-32.22
-36.05
-39.78
-43.19
-46.16
-48.6
-50.44
-51.58
-52.1
-52.24
-52.44
-53.12
-54.58
-56.86
-59.74
-62.86
-65.87
-68.61
-71.06
-73.35
-75.67
-78.15
-80.83
-83.63
-86.25
-88.27
-89.24
-88.68
-86.35
-82.17
-76.24
-68.71
-59.7
-49.29
-37.57
-24.89
-11.85
0.7
11.93
21.29
28.68
34.33
38.62
41.88
44.19
45.51
45.73
44.85
43.06
40.67
38.11
35.76
33.93
32.76
32.16
31.85
31.34
30.19
28.07
24.84
20.68
16.08
11.88
9.18
9.12
12.45
19.16
28.31
38.2
46.95
53.07
55.93
55.84
53.69
50.46
46.82
43.09
39.29
35.47
31.81
28.63
26.23
24.8
24.28
24.44
24.97
25.56
26.03
26.24
26.09
25.48
24.31
22.64
20.74
19.11
18.29
18.66
20.22
22.48
24.57
25.54
24.59
21.4
16.29
10.29
4.99
2.12
2.89
7.54
15.04
23.44
30.44
34.33
34.39
31
25.16
17.92
10.08
2.07
-5.74
-12.82
-18.38
-21.68
-22.18
-19.75
-14.69
-7.53
1.11
10.61
20.43
30.05
38.8
46
50.9
52.99
52.23
49.19
45.03
41.05
38.24
36.87
36.41
35.9
34.34
31.27
26.84
21.72
16.73
12.56
9.56
7.84
7.34
7.88
9.3
11.35
13.64
15.63
16.72
16.58
15.28
13.32
11.41
9.92
8.67
6.94
3.88
-1
-7.6
-15.31
-23.43
-31.41
-38.9
-45.49
-50.68
-54.08
-55.98
-57.56
-60.73
-67.26
-77.87
-91.74
-106.89
-121.09
-132.81
-141.82
-149.03
-155.82
-163.31
-171.73
-180.24
-187.13
-190.32
-187.92
-178.8
-162.76
-140.51
-113.38
-83.1
-51.61
-20.97
6.83
30.32
49.03
63.73
76.18
88.38
101.56
115.68
129.36
140.66
147.87
150.2
148.04
142.72
136.15
130.15
125.94
123.7
122.6
121.3
118.72
114.57
109.37
103.91
98.5
92.63
85.25
75.47
63.25
49.45
35.43
22.42
11.26
2.66
-2.46
-3.01
1.54
10.08
19.37
24.65
21.16
6.09
-20.17
-54.16
-90.6
-124.3
-151.47
-170.43
-181.16
-184.57
-181.88
-174.29
-163.24
-150.56
-138.48
-129.12
-123.77
-122.42
-123.64
-125.09
-124.54
-120.76
-113.94
-105.62
-97.93
-92.79
-91.3
-93.52
-98.43
-104.09
-107.83
-106.76
-98.5
-82.07
-58.48
-30.63
-2.39
22.62
42.2
55.92
64.65
69.71
72.1
72.35
70.78
67.91
64.65
61.99
60.61
60.48
61.04
61.45
61.04
59.58
57.23
54.27
50.85
46.88
42.15
36.6
30.41
23.98
17.8
12.18
7.15
2.47
-2.25
-7.59
-14.18
-22.55
-32.68
-43.59
-53.26
-59.03
-58.55
-50.76
-36.51
-18.21
1.03
18.61
33.11
44.34
52.71
58.68
62.37
63.72
62.87
60.39
57.26
54.51
52.86
52.39
52.67
53
52.75
51.67
49.91
47.88
45.89
43.95
41.83
39.24
36.16
33.01
30.56
29.54
30.36
32.91
36.69
41.07
45.56
49.85
53.77
57.1
59.54
60.86
61.09
60.59
59.92
59.42
58.94
57.77
54.94
49.75
42.18
33.04
23.62
15.14
8.3
3.17
-0.66
-3.69
-6.23
-8.38
-10.21
-11.92
-13.87
-16.47
-20.08
-24.73
-30.18
-35.97
-41.51
-46.35
-50.28
-53.42
-56.15
-58.84
-61.64
-64.33
-66.41
-67.35
-66.9
-65.32
-63.31
-61.74
-61.43
-62.91
-66.39
-71.7
-78.14
-84.42
-88.69
-88.96
-83.81
-73.04
-57.88
-40.67
-24.04
-10.12
0.06
6.5
9.99
11.6
12.3
12.91
13.95
15.81
18.7
22.62
27.52
33.27
39.7
46.6
53.58
60.17
65.97
70.82
74.89
78.57
82.07
85.16
87.11
86.92
83.85
77.85
69.76
61.02
53.23
47.46
43.97
42.17
41.02
39.45
36.71
32.53
27.11
21.03
15.09
10.21
7.1
6.05
6.68
8.1
9.22
9.25
8.08
6.18
4.39
3.37
3.33
4
4.92
5.66
6.09
6.28
6.44
6.84
7.71
9.23
11.41
13.94
16.22
17.36
16.47
12.97
6.84
-1.34
-10.39
-18.82
-25.19
-28.4
-28.09
-24.76
-19.68
-14.52
-10.76
-9.23
-9.84
-11.79
-13.94
-15.32
-15.52
-14.74
-13.63
-13.04
-13.65
-15.7
-18.87
-22.26
-24.65
-24.89
-22.45
-17.74
-11.96
-6.7
-3.21
-1.99
-2.63
-4.24
-5.92
-7.14
-7.77
-7.77
-6.99
-5.14
-2.08
1.82
5.77
8.83
10.49
10.97
11.14
12.05
14.27
17.74
21.81
25.69
28.76
30.6
30.81
28.97
24.71
18.23
10.45
2.94
-2.71
-5.72
-6.47
-6.42
-7.37
-10.66
-16.68
-24.86
-34.22
-43.74
-52.69
-60.46
-66.39
-69.64
-69.36
-65.14
-57.23
-46.68
-35.02
-23.86
-14.44
-7.44
-2.93
-0.56
0.24
0.1
-0.37
-0.75
-0.79
-0.43
0.23
1.03
1.86
2.65
3.38
3.97
4.36
4.45
4.25
3.91
3.66
3.73
4.19
4.96
5.75
6.26
6.26
5.75
4.89
3.98
3.3
3
3.11
3.52
4.11
4.77
5.42
5.99
6.37
6.45
6.09
5.29
4.14
2.92
1.98
1.6
1.91
2.71
3.62
4.19
4.07
3.25
1.97
0.65
-0.42
-1.1
-1.48
-1.68
-1.76
-1.66
-1.24
-0.46
0.5
1.32
1.64
1.27
0.3
-0.92
-1.94
-2.42
-2.26
-1.61
-0.83
-0.29
-0.19
-0.48
-0.91
-1.11
-0.83
-0.03
1.11
2.29
3.21
3.7
3.71
3.3
2.57
1.66
0.7
-0.12
-0.59
-0.61
-0.22
0.34
0.76
0.73
0.08
-1.11
-2.6
-4.02
-5.07
-5.52
-5.37
-4.7
-3.69
-2.53
-1.42
-0.52
0.04
0.2
-0.07
-0.69
-1.45
-2.08
-2.26
-1.76
-0.58
1.12
2.94
4.5
5.48
5.75
5.41
4.75
4.07
3.63
3.6
3.98
4.69
5.64
6.75
8.05
9.55
11.27
13.19
15.21
17.24
19.15
20.9
22.54
24.2
26.1
28.37
31.07
34.11
37.35
40.64
43.96
47.39
51.06
55.07
59.41
64
68.73
73.52
78.33
83.08
87.67
92.01
96.1
100.11
104.19
108.13
111.18
112.02
109.14
101.48
88.82
71.93
52.24
31.24
10.15
-10.28
-29.5
-46.96
-61.92
-73.62
-81.5
-85.48
-86.04
-84.11
-80.78
-77.05
-73.72
-71.28
-69.94
-69.67
-70.35
-71.77
-73.81
-76.47
-79.83
-84.08
-89.26
-95.21
-101.49
-107.45
-112.34
-115.58
-116.82
-116.03
-113.47
-109.7
-105.54
-101.91
-99.57
-98.81
-99.34
-100.46
-101.43
-101.69
-101.14
-99.82
-97.65
-94.24
-88.93
-81.06
-70.37
-57.04
-41.66
-25.03
-8
8.54
23.68
36.46
46.1
52.09
54.54
54.14
52.09
49.88
48.86
49.77
52.52
56.08
58.94
59.66
57.46
52.64
46.4
40.49
36.6
35.79
38.04
42.19
46.19
47.73
44.91
36.89
24.07
7.93
-9.42
-25.84
-39.56
-49.42
-54.91
-56.19
-53.98
-49.32
-43.14
-35.96
-27.77
-18.36
-7.89
2.75
12.08
18.75
22.33
23.75
24.92
27.82
33.58
42.01
51.85
61.63
70.24
77.14
81.97
84.22
83.18
78.32
69.86
59.03
47.75
38.04
31.26
27.9
27.81
30.52
35.48
41.96
48.73
53.99
55.53
51.41
40.79
24.51
5.14
-13.72
-28.6
-37.34
-39.73
-37.4
-32.8
-28.07
-24.27
-21.29
-18.55
-15.84
-13.72
-13.21
-15.07
-19.04
-23.78
-27.47
-28.8
-27.6
-24.84
-22.08
-20.51
-20.37
-20.88
-20.77
-19.05
-15.63
-11.38
-7.71
-5.83
-6.05
-7.59
-8.93
-8.56
-5.64
-0.48
5.7
11.38
15.36
17.26
17.49
16.89
16.28
16.1
16.42
17.1
17.94
18.78
19.44
19.64
18.97
17.02
13.56
8.76
3.17
-2.38
-7.08
-10.27
-11.62
-10.93
-8.14
-3.23
3.58
11.74
20.24
27.79
33.25
35.99
35.96
33.6
29.52
24.18
18.01
11.38
4.77
-1.43
-7.08
-12.51
-18.35
-25.16
-33.04
-41.41
-49.29
-55.85
-60.84
-64.76
-68.53
-73.01
-78.57
-85.05
-92.03
-99.12
-106.19
-113.21
-119.92
-125.46
-128.3
-126.6
-118.86
-104.56
-84.56
-61.02
-36.75
-14.33
4.63
19.79
31.84
41.81
50.46
57.89
63.78
67.74
69.79
70.4
70.29
69.95
69.44
68.4
66.43
63.49
60.09
57.09
55.11
53.95
52.3
47.95
38.61
22.82
0.69
-25.97
-54.1
-80.32
-101.92
-117.38
-126.4
-129.46
-127.34
-120.77
-110.36
-96.89
-81.37
-65.12
-49.45
-35.35
-23.25
-13
-4.02
4.27
12.19
19.73
26.7
32.93
38.56
44.06
50.01
56.87
64.75
73.26
81.67
89.11
94.81
98.3
99.41
98.24
95.07
90.25
84.24
77.66
71.26
65.75
61.65
58.96
57.13
55.2
52.15
47.39
41.09
34.21
28.29
24.86
25.01
28.99
36.18
45.33
54.89
63.42
69.94
74.12
76.25
77.1
77.63
78.65
80.63
83.64
87.4
91.63
96.4
102.26
109.91
119.59
130.38
140.01
145.32
143.33
132.32
112.3
84.69
51.56
14.9
-23.58
-61.95
-97.65
-127.57
-148.78
-159.66
-160.6
-153.85
-142.69
-130.31
-118.96
-109.75
-102.81
-97.55
-92.94
-87.76
-80.82
-71.41
-59.43
-45.41
-30.09
-14.12
2.23
19.1
36.82
55.57
75.17
94.82
113
127.68
136.68
138.33
132.04
118.54
99.52
76.95
52.52
27.41
2.63
-20.45
-40.01
-54.18
-61.74
-62.8
-58.78
-52
-44.88
-39.28
-36.22
-35.81
-37.46
-40.18
-42.82
-44.38
-44.34
-42.68
-39.84
-36.36
-32.58
-28.54
-24.14
-19.47
-14.95
-11.34
-9.37
-9.51
-11.7
-15.44
-19.93
-24.26
-27.67
-29.71
-30.38
-30.09
-29.52
-29.32
-29.88
-31.23
-33.09
-35.11
-37.01
-38.77
-40.42
-41.94
-43.2
-43.95
-44
-43.31
-42.14
-40.82
-39.67
-38.79
-37.96
-36.81
-34.99
-32.4
-29.24
-25.95
-23
-20.7
-19.17
-18.35
-18.14
-18.41
-19.07
-19.88
-20.57
-20.89
-20.71
