0
0
0
0
0
0
0
0
0
0
0
0.01
0.01
0
-0.03
-0.05
-0.05
0
0.13
0.36
0.66
1.01
1.37
1.72
2.06
2.4
2.79
3.24
3.8
4.42
5.06
5.66
6.2
6.68
7.15
7.68
8.31
9.14
10.09
11.04
11.88
12.56
13.14
13.76
14.65
15.96
17.91
20.32
22.9
25.38
27.58
29.57
31.68
34.32
37.81
42.54
48.15
54.1
59.83
64.97
69.58
74.14
79.34
85.71
93.76
103
112.62
121.73
129.77
136.75
143.3
150.75
157.77
166.64
177.95
191.79
206.97
220.57
228.25
225.36
208.53
176.87
132.76
80.05
23.07
-34.94
-92.44
-149.16
-205.23
-260.37
-313.74
-363.87
-409.83
-450.89
-486.47
-515.69
-537.15
-549.12
-549.82
-538.18
-513.98
-478.39
-433.54
-382.05
-326.56
-269.31
-212.03
-155.99
-102.21
-51.56
-5.01
36.56
72.5
102.52
126.77
145.77
160.21
170.8
178.18
182.74
184.76
184.47
182.15
178.15
172.88
166.74
160.08
153.15
146.09
138.97
131.85
124.75
117.75
110.91
104.31
97.99
92
86.34
81.04
76.08
71.5
67.3
63.47
60.03
56.97
54.31
52.03
50.14
48.62
47.45
46.57
45.92
45.4
44.85
44.11
43.01
41.37
39.03
35.91
31.96
27.21
21.73
15.69
9.3
2.83
-3.45
-9.29
-14.45
-18.77
-22.12
-24.48
-25.85
-26.31
-25.97
-24.98
-23.48
-21.6
-19.47
-17.18
-14.79
-12.33
-9.83
-7.32
-4.8
-2.27
0.28
2.86
5.48
8.18
10.96
13.8
16.67
19.58
22.52
25.53
28.64
31.9
35.36
39.1
43.04
47.16
51.43
55.84
60.39
65.1
69.98
75.09
80.5
86.06
91.67
97.28
102.86
108.42
113.94
119.44
124.98
130.6
136.04
141.09
145.55
149.2
151.74
152.82
151.94
148.4
143.52
137.77
131.44
124.72
117.76
110.67
103.55
96.52
89.71
83.29
77.15
71.22
65.51
60.04
54.84
49.96
45.44
41.36
37.78
34.56
31.56
28.72
25.98
23.31
20.7
18.16
15.74
13.51
11.41
9.42
7.54
5.8
4.21
2.79
1.57
0.54
-0.27
-0.92
-1.46
-1.92
-2.33
-2.7
-3.05
-3.37
-3.67
-3.91
-4.12
-4.29
-4.42
-4.5
-4.54
-4.54
-4.5
-4.43
-4.35
-4.28
-4.23
-4.22
-4.27
-4.36
-4.51
-4.69
-4.91
-5.17
-5.47
-5.84
-6.29
-6.8
-7.35
-7.91
-8.44
-8.93
-9.38
-9.83
-10.31
-10.85
-11.44
-12.05
-12.62
-13.11
-13.51
-13.84
-14.18
-14.63
-15.26
-16.09
-17.06
-18.07
-19.02
-19.91
-20.83
-21.97
-23.55
-25.73
-28.51
-31.69
-34.98
-38.11
-40.97
-43.72
-46.75
-50.5
-55.29
-61.13
-67.66
-74.33
-80.61
-86.31
-91.66
-97.34
-104.12
-112.56
-122.76
-134.24
-146.28
-158.13
-169.42
-180.31
-191.38
-203.51
-217.69
-234.88
-255.73
-279.98
-306
-330.59
-349.57
-358.99
-356.64
-342.92
-320.69
-294.08
-266.88
-241.4
-218.22
-196.86
-176.7
-157.66
-140.13
-124.5
-110.74
-98.28
-86.36
-74.49
-62.77
-51.84
-42.64
-35.81
-31.47
-29.05
-27.49
-25.69
-22.92
-19.14
-14.94
-11.32
-9.17
-8.97
-10.57
-13.27
-16.09
-17.95
-18.02
-15.73
-10.93
-3.84
4.92
14.46
23.83
32.17
38.93
43.9
47.14
48.89
49.38
48.87
47.62
45.89
44.07
42.47
41.37
40.87
40.83
41.02
41.14
40.93
40.33
39.35
38.08
36.63
34.99
33.09
30.81
28.02
24.75
21.14
17.51
14.21
11.5
9.43
7.74
5.99
3.63
0.27
-4.16
-9.33
-14.53
-18.77
-21.07
-20.7
-17.42
-11.53
-3.79
4.78
13.18
20.66
26.8
31.39
34.45
36.03
36.2
35.08
32.94
30.14
27.14
24.43
22.43
21.4
21.37
22.2
23.53
25.02
26.29
27.1
27.36
27.03
26.07
24.42
22
18.76
14.83
10.5
6.21
2.39
-0.7
-3.09
-5.04
-7.04
-9.57
-12.91
-17.05
-21.55
-25.66
-28.42
-28.98
-26.78
-21.81
-14.54
-5.79
3.41
12.14
19.65
25.47
29.36
31.31
31.45
30.09
27.69
24.82
22.1
20.02
18.88
18.63
18.96
19.4
19.53
19.18
18.43
17.5
16.61
15.76
14.73
13.17
10.82
7.62
3.83
-0.14
-3.84
-6.99
-9.55
-11.79
-14.06
-16.75
-20.02
-23.83
-27.76
-31.16
-33.2
-33.1
-30.32
-24.79
-17
-7.86
1.49
10
16.93
21.94
25.04
26.5
26.68
25.92
24.57
22.98
21.39
20.04
19.06
18.45
18.14
17.98
17.83
17.56
17.19
16.78
16.38
15.99
15.51
14.69
13.27
11.07
8.07
4.49
0.68
-2.91
-6.01
-8.58
-10.89
-13.43
-16.61
-20.61
-25.12
-29.42
-32.46
-33.3
-31.37
-26.62
-19.6
-11.21
-2.51
5.6
12.47
17.78
21.47
23.67
24.59
24.51
23.64
22.19
20.35
18.3
16.27
14.47
13.08
12.18
11.72
11.52
11.35
11.05
10.52
9.76
8.72
7.34
5.5
3.12
0.28
-2.81
-5.81
-8.4
-10.48
-12.23
-14.14
-16.74
-20.34
-24.8
-29.42
-33.11
-34.74
-33.56
-29.37
-22.62
-14.25
-5.35
3.06
10.25
15.8
19.56
21.64
22.28
21.81
20.57
18.9
17.11
15.44
14.06
13.12
12.69
12.78
13.36
14.32
15.47
16.59
17.49
17.94
17.74
16.75
14.9
12.23
9.01
5.61
2.47
-0.14
-2.17
-3.86
-5.66
-8.05
-11.43
-15.86
-21.03
-26.12
-30.1
-31.86
-30.69
-26.46
-19.73
-11.61
-3.36
3.96
9.72
13.75
16.18
17.27
17.27
16.45
15.06
13.43
11.91
10.79
10.25
10.31
10.83
11.58
12.31
12.83
13.04
12.94
12.57
11.98
11.13
9.94
8.26
6
3.17
0
-3.25
-6.27
-8.93
-11.32
-13.8
-16.82
-20.72
-25.57
-31.02
-36.31
-40.38
-42.15
-40.82
-36.21
-28.78
-19.61
-9.96
-0.97
6.65
12.65
17.11
20.21
22.1
22.91
22.78
22.01
20.92
19.88
19.15
18.84
18.96
19.4
20.04
20.63
20.95
20.82
20.18
19.14
17.91
16.64
15.31
13.74
11.66
8.97
5.75
2.4
-0.73
-3.34
-5.49
-7.46
-9.66
-12.48
-16.17
-20.78
-26.16
-32
-37.74
-42.57
-45.64
-46.08
-43.4
-37.58
-29.16
-19.19
-8.89
0.65
8.72
15.06
19.8
23.2
25.5
26.82
27.21
26.79
25.79
24.61
23.62
23.15
23.31
23.97
24.88
25.69
26.12
26
25.28
23.97
22.19
20.02
17.58
14.96
12.25
9.48
6.64
3.71
0.71
-2.28
-5.11
-7.65
-9.81
-11.67
-13.47
-15.58
-18.39
-22.18
-26.91
-32.12
-36.99
-40.45
-41.47
-39.47
-34.42
-26.89
-17.87
-8.47
0.32
7.82
13.63
17.68
20.05
21.06
21.09
20.56
19.86
19.34
19.19
19.58
20.53
21.94
23.58
25.14
26.35
27
27.11
26.8
26.27
25.65
24.9
23.89
22.4
20.29
17.52
14.25
10.71
7.22
3.95
0.96
-1.9
-4.93
-8.5
-12.85
-18.03
-23.78
-29.51
-34.39
-37.53
-38.19
-36.03
-31.24
-24.51
-16.87
-9.36
-2.69
2.85
7.35
11.1
14.26
16.85
18.76
19.94
20.57
21.06
21.86
23.29
25.35
27.7
29.8
31.17
31.48
30.69
28.97
26.57
23.73
20.61
17.24
13.54
9.51
5.22
0.89
-3.07
-6.29
-8.47
-9.65
-10.16
-10.64
-11.8
-14.27
-18.36
-23.97
-30.61
-37.47
-43.54
-47.8
-49.38
-47.74
-42.85
-35.19
-25.69
-15.51
-5.72
2.83
9.74
14.91
18.51
20.77
22
22.45
22.36
21.96
21.44
20.95
20.57
20.32
20.16
19.99
19.69
19.17
18.38
17.36
16.2
14.96
13.62
12.08
10.22
7.97
5.39
2.67
0.05
-2.28
-4.34
-6.3
-8.5
-11.29
-14.93
-19.54
-24.98
-30.89
-36.58
-41.15
-43.59
-43.08
-39.3
-32.51
-23.62
-13.83
-4.4
3.72
10.09
14.7
17.79
19.69
20.61
20.7
20.1
19.04
17.92
17.14
17.05
17.67
18.76
19.94
20.8
21.2
21.22
21.08
20.95
20.79
20.36
19.35
17.51
14.8
11.43
7.81
4.39
1.41
-1.11
-3.44
-5.94
-8.99
-12.76
-17.23
-22.14
-27.05
-31.31
-34.15
-34.83
-32.83
-28.07
-21.03
-12.59
-3.8
4.38
11.3
16.62
20.28
22.36
23.04
22.59
21.31
19.56
17.65
15.83
14.23
12.92
11.96
11.4
11.27
11.52
12.05
12.58
12.83
12.53
11.5
9.76
7.52
5.08
2.69
0.5
-1.63
-3.95
-6.78
-10.35
-14.75
-19.82
-25.18
-30.23
-34.17
-36.13
-35.36
-31.49
-24.75
-15.94
-6.31
2.86
10.57
16.43
20.48
23.1
24.69
25.51
25.62
25.08
24.01
22.64
21.29
20.24
19.6
19.36
19.36
19.43
19.4
19.15
18.57
17.59
16.17
14.29
12.01
9.42
6.6
3.67
0.64
-2.52
-6.01
-10.04
-14.81
-20.32
-26.21
-31.76
-35.96
-37.84
-36.74
-32.56
-25.83
-17.53
-8.85
-0.83
5.86
11
14.76
17.51
19.56
21.06
21.96
22.18
21.72
20.75
19.53
18.34
17.3
16.39
15.53
14.61
13.66
12.75
11.92
11.13
10.23
9.01
7.31
5.11
2.47
-0.52
-3.75
-7.23
-11.01
-15.15
-19.5
-23.72
-27.11
-28.83
-28.13
-24.66
-18.66
-10.89
-2.46
5.54
12.33
17.48
20.9
22.68
22.98
21.98
19.99
17.48
15.01
13.1
12.1
11.98
12.56
13.47
14.38
15.16
15.72
16.01
15.89
15.19
13.7
11.44
8.66
5.73
3.05
0.82
-1.04
-2.81
-4.85
-7.48
-10.87
-14.97
-19.5
-23.84
-27.16
-28.57
-27.37
-23.27
-16.63
-8.38
0.3
8.22
14.54
18.9
21.34
22.17
21.8
20.6
18.94
17.13
15.44
14.06
13.04
12.37
11.95
11.71
11.61
11.62
11.69
11.7
11.46
10.79
9.64
8
5.99
3.74
1.41
-0.9
-3.11
-5.09
-6.78
-8.17
-9.37
-10.65
-12.33
-14.72
-17.86
-21.41
-24.59
-26.48
-26.27
-23.55
-18.52
-11.84
-4.43
2.83
9.24
14.34
17.97
20.09
20.82
20.41
19.19
17.5
15.71
14.07
12.75
11.84
11.29
11.03
10.9
10.75
10.41
9.8
8.93
7.83
6.59
5.27
3.88
2.38
0.76
-1.04
-2.94
-4.8
-6.45
-7.77
-8.88
-10.05
-11.63
-13.81
-16.46
-19.05
-20.85
-21.1
-19.37
-15.68
-10.5
-4.54
1.45
6.82
11.22
14.38
16.24
16.82
16.22
14.63
12.4
9.97
7.78
6.2
5.44
5.49
6.14
7.04
7.87
8.43
8.61
8.45
7.95
7.05
5.67
3.76
1.38
-1.27
-3.84
-6.05
-7.81
-9.23
-10.62
-12.36
-14.67
-17.62
-21
-24.37
-27.09
-28.52
-28.07
-25.46
-20.82
-14.64
-7.78
-1.1
4.67
9.12
12.16
13.94
14.69
14.64
14
12.96
11.78
10.72
9.95
9.49
9.23
9
8.6
8.06
7.5
7.11
6.92
6.86
6.63
5.96
4.67
2.79
0.53
-1.84
-4.09
-6.16
-8.1
-10.06
-12.21
-14.66
-17.45
-20.5
-23.66
-26.54
-28.63
-29.26
-27.91
-24.32
-18.7
-11.68
-4.11
3.09
9.22
13.9
17.05
18.83
19.48
19.26
18.4
17.13
15.69
14.27
13.09
12.29
11.94
12.01
12.39
12.95
13.59
14.28
15.07
15.96
16.84
17.43
17.4
16.41
14.34
11.33
7.72
3.94
0.38
-2.73
-5.33
-7.49
-9.38
-11.22
-13.31
-15.88
-18.97
-22.33
-25.39
-27.4
-27.66
-25.77
-21.79
-16.2
-9.75
-3.25
2.65
7.56
11.3
13.9
15.43
15.95
15.54
14.35
12.67
10.93
9.52
8.75
8.64
9.01
9.61
10.22
10.71
11.02
11.05
10.63
9.56
7.75
5.25
2.33
-0.73
-3.67
-6.36
-8.81
-11.15
-13.6
-16.36
-19.54
-23
-26.28
-28.69
-29.56
-28.45
-25.44
-21.07
-16.17
-11.5
-7.57
-4.58
-2.52
-1.36
-1.12
-1.75
-3.01
-4.5
-5.78
-6.47
-6.46
-5.85
-4.88
-3.74
-2.49
-1.13
0.27
1.56
2.51
2.88
2.54
1.53
0.02
-1.73
-3.51
-5.19
-6.75
-8.28
-9.98
-12.07
-14.76
-18.09
-21.78
-25.27
-27.76
-28.42
-26.7
-22.54
-16.41
-9.23
-2.07
4.19
8.95
12.08
13.71
14.14
13.65
12.48
10.85
8.95
7.07
5.42
4.17
3.39
3.02
2.99
3.19
3.48
3.73
3.85
3.76
3.51
3.19
2.87
2.56
2.17
1.54
0.53
-0.94
-2.95
-5.53
-8.72
-12.48
-16.64
-20.72
-24.04
-25.82
-25.45
-22.67
-17.72
-11.31
-4.43
1.88
6.86
10.14
11.89
12.5
12.47
12.11
11.5
10.63
9.53
8.43
7.62
7.39
7.77
8.5
9.18
9.44
9.15
8.48
7.72
7.09
6.57
5.95
4.89
3.23
1.02
-1.42
-3.72
-5.56
-6.84
-7.65
-8.28
-9.03
-10.18
-12
-14.61
-17.9
-21.46
-24.55
-26.31
-26.01
-23.33
-18.5
-12.25
-5.48
0.88
6.22
10.27
13.06
14.75
15.56
15.67
15.27
14.64
14.03
13.7
13.72
13.99
14.26
14.3
13.98
13.36
12.66
12.06
11.65
11.29
10.73
9.71
8.11
5.99
3.59
1.3
-0.59
-1.95
-2.89
-3.74
-4.86
-6.56
-8.95
-11.94
-15.27
-18.52
-21.16
-22.59
-22.3
-19.92
-15.49
-9.47
-2.67
3.97
9.64
13.87
16.57
17.88
18.1
17.47
16.22
14.54
12.71
11.04
9.84
9.27
9.29
9.67
10.07
10.21
9.92
9.17
8.01
6.54
4.85
2.94
0.87
-1.34
-3.59
-5.77
-7.72
-9.31
-10.48
-11.38
-12.34
-13.84
-16.27
-19.79
-24.09
-28.4
-31.71
-33.08
-31.86
-28.03
-22.09
-14.93
-7.52
-0.65
5.18
9.78
13.15
15.4
16.71
17.24
17.23
16.86
16.31
15.66
14.92
14.1
13.24
12.41
11.67
11.02
10.38
9.69
8.86
7.86
6.75
5.58
4.32
2.92
1.3
-0.56
-2.56
-4.48
-6.06
-7.13
-7.75
-8.2
-8.87
-10.16
-12.33
-15.37
-19
-22.66
-25.66
-27.28
-26.96
-24.44
-19.86
-13.79
-7.09
-0.59
5.04
9.49
12.76
15.03
16.54
17.38
17.62
17.34
16.69
15.92
15.27
14.84
14.59
14.36
14.02
13.48
12.84
12.19
11.62
11.07
10.43
9.54
8.27
6.65
4.75
2.78
0.98
-0.51
-1.62
-2.46
-3.22
-4.08
-5.21
-6.67
-8.49
-10.75
-13.5
-16.8
-20.52
-24.32
-27.6
-29.63
-29.8
-27.72
-23.48
-17.56
-10.76
-3.9
2.38
7.69
11.95
15.19
17.42
18.64
18.88
18.3
17.24
16.11
15.27
14.87
14.83
14.95
14.99
14.84
14.56
14.29
14.2
14.33
14.61
14.8
14.62
13.81
12.24
9.94
7.08
3.95
0.82
-2.09
-4.66
-6.89
-8.89
-10.83
-12.9
-15.29
-18.15
-21.43
-24.86
-27.93
-29.91
-30.08
-27.95
-23.48
-17.09
-9.64
-2.1
4.68
10.13
14.07
16.57
17.83
18.13
17.65
16.55
15.08
13.49
12.11
11.22
10.97
11.25
11.84
12.41
12.7
12.64
12.24
11.64
10.98
10.35
9.79
9.3
8.85
8.4
7.77
6.81
5.36
3.37
0.94
-1.77
-4.59
-7.52
-10.73
-14.51
-19.12
-24.55
-30.44
-35.95
-40.01
-41.59
-40.05
-35.38
-28.19
-19.57
-10.68
-2.55
4.21
9.38
13
15.25
16.34
16.54
16.14
15.49
14.89
14.53
14.46
14.57
14.71
14.75
14.65
14.42
14.11
13.76
13.42
13.01
12.48
11.66
10.42
8.65
6.4
3.76
0.98
-1.71
-4.15
-6.27
-8.17
-10.02
-12.03
-14.39
-17.22
-20.48
-24
-27.34
-29.87
-30.88
-29.72
-26.07
-20.12
-12.56
-4.41
3.31
9.87
14.96
18.59
20.86
21.87
21.64
20.29
18.15
15.78
13.8
12.64
12.41
12.83
13.48
13.88
13.8
13.17
12.12
10.82
9.44
8.06
6.69
5.32
3.93
2.55
1.29
0.2
-0.64
-1.28
-1.83
-2.5
-3.51
-5.09
-7.42
-10.47
-14.04
-17.63
-20.52
-21.99
-21.51
-19
-14.79
-9.58
-4.22
0.58
4.36
6.92
8.33
8.78
8.55
7.89
7.1
6.44
6.09
6.2
6.8
7.83
9.19
10.75
12.33
13.75
14.8
15.3
15.12
14.19
12.54
10.36
7.83
5.18
2.63
0.31
-1.78
-3.76
-5.85
-8.39
-11.57
-15.43
-19.82
-24.35
-28.48
-31.59
-33.01
-32.25
-29.1
-23.73
-16.8
-9.25
-2.11
3.8
8.04
10.62
11.85
12.19
12.07
11.77
11.44
11.17
11.03
11.13
11.47
12
12.52
12.81
12.73
12.26
11.57
10.79
9.98
8.99
7.56
5.5
2.82
-0.2
-3.17
-5.69
-7.59
-8.99
-10.18
-11.54
-13.4
-15.95
-19.16
-22.77
-26.26
-28.96
-30.09
-29.06
-25.58
-19.85
-12.53
-4.61
2.93
9.24
13.85
16.69
17.97
18.09
17.47
16.46
15.33
14.25
13.35
12.7
12.35
12.26
12.34
12.47
12.53
12.36
11.86
10.96
9.59
7.79
5.69
3.41
1.07
-1.32
-3.8
-6.4
-9.01
-11.45
-13.58
-15.42
-17.18
-19.25
-21.91
-25.15
-28.53
-31.33
-32.69
-32.01
-29.07
-24.09
-17.61
-10.33
-2.95
4.02
10.18
15.32
19.31
22.1
23.65
24.04
23.41
22.06
20.31
18.54
17.03
15.96
15.39
15.21
15.18
15.01
14.36
12.98
10.79
7.91
4.58
1.13
-2.07
-4.76
-6.76
-8.03
-8.62
-8.72
-8.67
-8.85
-9.67
-11.45
-14.19
-17.57
-20.9
-23.3
-24.01
-22.59
-19.12
-14.09
-8.27
-2.33
3.24
8.21
12.49
16.01
18.65
20.28
20.76
20.11
18.51
16.29
13.9
11.71
10.04
9.04
8.74
9.03
9.84
11.04
12.48
13.98
15.29
16.15
16.32
15.66
14.14
11.87
9.03
5.81
2.4
-1.04
-4.42
-7.8
-11.31
-15.13
-19.44
-24.16
-28.96
-33.16
-35.92
-36.43
-34.21
-29.27
-22.18
-13.9
-5.45
2.31
8.88
14.04
17.78
20.17
21.26
21.16
20.11
18.45
16.63
15.08
14.11
13.81
14.12
14.79
15.53
16.08
16.28
16.16
15.81
15.36
14.8
13.94
12.49
10.25
7.22
3.65
0
-3.28
-5.98
-8.13
-10.03
-12.05
-14.55
-17.72
-21.49
-25.57
-29.4
-32.26
-33.44
-32.33
-28.72
-22.86
-15.39
-7.26
0.56
7.31
12.6
16.31
18.6
19.65
19.66
18.85
17.48
15.93
14.62
13.85
13.72
14.04
14.44
14.58
14.3
13.67
12.93
12.32
11.9
11.55
11
10.01
8.51
6.54
4.31
2.04
-0.09
-2.01
-3.79
-5.54
-7.48
-9.81
-12.69
-16.22
-20.29
-24.59
-28.52
-31.33
-32.32
-31.04
-27.44
-21.95
-15.29
-8.32
-1.72
4.09
8.91
12.75
15.58
17.45
18.41
18.59
18.24
17.65
17.08
16.64
16.32
15.99
15.51
14.83
14.02
13.24
12.63
12.18
11.74
11.07
9.85
7.94
5.36
2.37
-0.65
-3.31
-5.38
-6.87
-7.98
-9.08
-10.51
-12.54
-15.33
-18.84
-22.86
-26.87
-30.15
-31.94
-31.58
-28.86
-24.1
-18.02
-11.56
-5.53
-0.43
3.57
6.5
8.52
9.73
10.26
10.25
9.9
9.4
9.01
8.81
8.85
9.03
9.21
9.3
9.3
9.3
9.4
9.62
9.84
9.79
9.11
7.56
5.11
2.07
-1.11
-3.94
-6.12
-7.74
-9.12
-10.72
-12.93
-15.94
-19.59
-23.46
-26.9
-29.14
-29.53
-27.6
-23.25
-16.86
-9.23
-1.36
5.78
11.51
15.55
17.97
19.02
18.97
18.09
16.59
14.74
12.79
11.06
9.76
8.95
8.56
8.43
8.37
8.21
7.76
6.87
5.5
3.69
1.64
-0.42
-2.27
-3.91
-5.48
-7.24
-9.48
-12.35
-15.84
-19.72
-23.52
-26.55
-28.09
-27.52
-24.54
-19.33
-12.57
-5.22
1.73
7.56
11.91
14.79
16.43
17.08
16.95
16.16
14.83
13.11
11.29
9.65
8.48
7.83
7.64
7.7
7.84
7.92
7.89
7.69
7.22
6.36
4.96
3.01
0.56
-2.22
-5.2
-8.32
-11.64
-15.28
-19.33
-23.72
-28.08
-31.79
-34.03
-34.04
-31.4
-26.17
-18.96
-10.71
-2.48
4.93
11.03
15.7
19.01
21.1
22.13
22.22
21.53
20.27
18.68
17.03
15.58
14.54
14.02
14.05
14.48
15.07
15.51
15.48
14.74
13.26
11.13
8.49
5.55
2.4
-0.87
-4.21
-7.54
-10.85
-14.23
-17.83
-21.8
-26.08
-30.28
-33.62
-35.19
-34.2
-30.38
-24.09
-16.17
-7.76
0.11
6.71
11.67
14.93
16.62
16.97
16.34
15.18
13.99
13.2
13.01
13.37
13.98
14.49
14.64
14.33
13.66
12.78
11.82
10.87
9.91
8.83
7.46
5.69
3.43
0.79
-2.02
-4.67
-6.87
-8.56
-9.89
-11.27
-13.2
-16.01
-19.74
-24
-28
-30.83
-31.63
-29.94
-25.76
-19.58
-12.16
-4.38
2.99
9.33
14.23
17.51
19.23
19.68
19.27
18.48
17.67
17.03
16.56
16.14
15.65
15.05
14.41
13.85
13.46
13.17
12.87
12.33
11.36
9.85
7.87
5.59
3.17
0.81
-1.42
-3.51
-5.47
-7.36
-9.29
-11.41
-13.91
-16.94
-20.47
-24.14
-27.3
-29.09
-28.79
-26.01
-20.9
-14.05
-6.36
1.19
7.84
13.15
16.95
19.36
20.54
20.71
20.08
18.9
17.48
16.19
15.35
15.15
15.49
16.1
16.66
16.91
16.8
16.45
15.98
15.39
14.55
13.23
11.25
8.62
5.55
2.37
-0.62
-3.26
-5.58
-7.87
-10.43
-13.54
-17.39
-21.9
-26.8
-31.48
-35.21
-37.16
-36.71
-33.58
-28.01
-20.75
-12.83
-5.27
1.2
6.31
10.12
12.93
14.99
16.41
17.19
17.3
16.88
16.22
15.72
15.7
16.29
17.34
18.52
19.5
20.03
20.07
19.67
18.96
17.95
16.63
14.89
12.61
9.8
6.58
3.13
-0.21
-3.18
-5.69
-7.81
-9.83
-12.13
-15.08
-18.84
-23.29
-28.03
-32.29
-35.21
-35.97
-34.04
-29.36
-22.44
-14.19
-5.72
1.99
8.3
12.93
15.98
17.72
18.53
18.71
18.5
18.01
17.33
16.55
15.76
15.14
14.77
14.7
14.86
15.08
15.21
15.16
14.94
14.55
13.98
13.13
11.86
10.04
7.64
4.77
1.66
-1.37
-4.08
-6.3
-8.11
-9.72
-11.47
-13.72
-16.67
-20.37
-24.56
-28.78
-32.39
-34.67
-35.01
-33.06
-28.8
-22.63
-15.25
-7.5
-0.19
6.06
10.86
14.09
15.87
16.44
16.2
15.53
14.77
14.17
13.83
13.73
13.87
14.24
14.84
15.68
16.64
17.52
18.08
18.1
17.44
16.1
14.16
11.75
9.05
6.25
3.58
1.23
-0.77
-2.48
-4.1
-5.9
-8.1
-10.82
-14.03
-17.51
-20.77
-23.15
-23.9
-22.44
-18.64
-12.87
-5.95
1.11
7.41
12.4
15.83
17.73
18.29
17.78
16.55
14.93
13.28
11.82
10.68
9.86
9.31
9.02
8.97
9.22
9.7
10.28
10.7
10.68
10.04
8.73
6.87
4.65
2.32
0.07
-1.97
-3.75
-5.27
-6.68
-8.19
-10.06
-12.53
-15.68
-19.4
-23.35
-27.01
-29.72
-30.81
-29.83
-26.57
-21.31
-14.68
-7.6
-0.96
4.6
8.81
11.79
13.74
14.95
15.56
15.68
15.43
14.98
14.51
14.15
13.93
13.75
13.48
13.05
12.42
11.67
10.89
10.11
9.3
8.38
7.2
5.66
3.71
1.39
-1.15
-3.7
-6.06
-8.2
-10.23
-12.39
-15.01
-18.29
-22.21
-26.44
-30.32
-33
-33.71
-31.88
-27.52
-21.05
-13.33
-5.34
2.05
8.24
12.96
16.16
17.94
18.4
17.72
16.1
13.86
11.4
9.15
7.48
6.55
6.31
6.52
6.89
7.19
7.32
7.38
7.44
7.55
7.54
7.2
6.3
4.69
2.48
-0.11
-2.71
-5.05
-7.01
-8.73
-10.51
-12.68
-15.48
-18.94
-22.81
-26.58
-29.57
-31.06
-30.45
-27.53
-22.47
-15.88
-8.63
-1.6
4.5
9.32
12.75
14.91
16
16.22
15.81
15
14
13
12.12
11.41
10.86
10.48
10.27
10.22
10.29
10.35
10.23
9.78
8.83
7.31
5.23
2.71
-0.06
-2.77
-5.2
-7.21
-8.82
-10.24
-11.78
-13.78
-16.4
-19.6
-23.09
-26.38
-28.8
-29.66
-28.47
-24.99
-19.47
-12.56
-5.19
1.7
7.46
11.73
14.48
15.85
16.07
15.36
13.97
12.22
10.43
8.87
7.75
7.1
6.93
7.19
7.81
8.66
9.62
10.47
10.95
10.87
10.1
8.6
6.5
3.96
1.2
-1.65
-4.5
-7.39
-10.42
-13.68
-17.24
-21.01
-24.75
-27.91
-29.82
-29.76
-27.28
-22.37
-15.57
-7.79
-0.05
6.79
12.25
16.23
18.82
20.22
20.61
20.11
18.95
17.42
15.87
14.61
13.82
13.5
13.46
13.48
13.37
13.01
12.34
11.34
9.98
8.17
5.9
3.18
0.13
-3.05
-6.14
-9.04
-11.7
-14.22
-16.75
-19.47
-22.57
-26.08
-29.81
-33.27
-35.72
-36.4
-34.72
-30.52
-24.17
-16.5
-8.5
-1.15
4.93
9.48
12.6
14.57
15.7
16.25
16.36
16.15
15.7
15.11
14.45
13.73
12.92
11.94
10.8
9.62
8.6
7.88
7.49
7.25
6.81
5.89
4.36
2.31
0
-2.29
-4.39
-6.31
-8.25
-10.49
-13.28
-16.76
-20.86
-25.26
-29.4
-32.54
-33.92
-32.95
-29.47
-23.78
-16.67
-9.16
-2.17
3.7
8.25
11.58
13.87
15.31
16
16.04
15.65
15.15
14.86
15.01
15.58
16.36
17.03
17.31
17.05
16.26
15.11
13.78
12.39
10.97
9.44
7.66
5.6
3.33
1.05
-1.05
-2.91
-4.62
-6.43
-8.68
-11.55
-15.1
-19.16
-23.42
-27.43
-30.6
-32.36
-32.18
-29.77
-25.16
-18.82
-11.52
-4.11
2.61
8.13
12.23
14.99
16.57
17.19
17.03
16.28
15.21
14.11
13.26
12.79
12.67
12.74
12.83
12.82
12.7
12.48
12.21
11.83
11.21
10.26
8.9
7.18
5.22
3.14
1.03
-1.04
-3.13
-5.35
-7.81
-10.69
-14.07
-17.94
-22.17
-26.35
-29.92
-32.13
-32.31
-30.04
-25.39
-18.85
-11.28
-3.6
3.4
9.23
13.69
16.79
18.6
19.23
18.86
17.76
16.27
14.81
13.68
13.07
12.94
13.11
13.34
13.49
13.49
13.43
13.35
13.23
12.95
12.31
11.12
9.31
6.96
4.31
1.64
-0.83
-3.04
-5.07
-7.21
-9.75
-12.98
-16.91
-21.29
-25.51
-28.8
-30.4
-29.78
-26.81
-21.83
-15.47
-8.52
-1.7
4.43
9.56
13.51
16.3
17.95
18.6
18.39
17.6
16.48
15.34
14.41
13.81
13.57
13.62
13.82
14.08
14.3
14.41
14.36
14.03
13.3
12.05
10.2
7.78
4.86
1.69
-1.46
-4.35
-6.76
-8.69
-10.27
-11.75
-13.41
-15.48
-18.07
-21.19
-24.68
-28.24
-31.33
-33.24
-33.23
-30.81
-25.96
-19.22
-11.55
-4
2.6
7.89
11.95
15.08
17.56
19.48
20.73
21.22
20.97
20.25
19.44
18.89
18.71
18.76
18.82
18.64
18.21
17.59
16.98
16.46
15.98
15.32
14.19
12.45
10.08
7.25
4.23
1.25
-1.54
-4.12
-6.55
-8.86
-11.1
-13.34
-15.69
-18.39
-21.65
-25.51
-29.67
-33.48
-36
-36.38
-34.09
-29.23
-22.47
-14.82
-7.34
-0.74
4.67
8.97
12.39
15.08
17.05
18.21
18.54
18.15
17.3
16.36
15.58
15.1
14.87
14.78
14.71
14.61
14.45
14.2
13.82
13.24
12.43
11.35
10.06
8.53
6.73
4.57
2.02
-0.89
-3.99
-7.04
-9.8
-12.16
-14.14
-15.91
-17.72
-19.85
-22.5
-25.68
-29.1
-32.17
-34.09
-34.07
-31.66
-26.88
-20.33
-12.96
-5.72
0.67
5.89
9.95
13.03
15.24
16.68
17.39
17.49
17.25
16.97
16.95
17.27
17.83
18.35
18.55
18.26
17.56
16.69
15.92
15.43
15.16
14.88
14.16
12.67
10.25
6.97
3.22
-0.53
-3.84
-6.46
-8.41
-9.93
-11.36
-13.1
-15.43
-18.39
-21.83
-25.33
-28.29
-30
-29.83
-27.39
-22.69
-16.27
-8.98
-1.88
4.19
8.77
11.8
13.6
14.55
14.95
14.93
14.53
13.8
12.96
12.28
12.06
12.45
13.35
14.49
15.52
16.14
16.19
15.75
14.97
14.02
12.95
11.66
9.99
7.76
5.01
1.94
-1.16
-3.92
-6.2
-8.06
-9.81
-11.81
-14.37
-17.63
-21.43
-25.31
-28.65
-30.74
-31.01
-29.15
-25.23
-19.61
-12.91
-5.83
1.03
7.15
12.18
15.98
18.4
19.49
19.42
18.47
17.04
15.52
14.25
13.36
12.89
12.67
12.57
12.36
11.95
11.28
10.44
9.57
8.82
8.26
7.78
7.16
6.06
4.29
1.85
-0.98
-3.84
-6.36
-8.38
-9.97
-11.41
-13.02
-15.08
-17.7
-20.82
-24.17
-27.31
-29.61
-30.41
-29.21
-25.82
-20.55
-14.05
-7.22
-0.87
4.48
8.64
11.65
13.68
14.85
15.3
15.18
14.68
14.06
13.49
13.06
12.75
12.48
12.17
11.81
11.45
11.14
10.94
10.86
10.83
10.67
10.17
9.15
7.49
5.26
2.72
0.19
-2.04
-3.81
-5.17
-6.38
-7.81
-9.77
-12.45
-15.87
-19.81
-23.87
-27.5
-30.01
-30.76
-29.31
-25.61
-20.07
-13.53
-6.92
-1.06
3.64
7.13
9.67
11.52
12.86
13.73
14.09
14.01
13.62
13.18
12.89
12.86
13.07
13.38
13.69
13.88
14
14.02
13.98
13.77
13.29
12.36
10.91
8.93
6.51
3.86
1.2
-1.28
-3.45
-5.31
-6.96
-8.62
-10.53
-12.96
-16.04
-19.73
-23.7
-27.32
-29.76
-30.28
-28.46
-24.38
-18.61
-11.98
-5.33
0.74
5.86
9.93
12.88
14.71
15.46
15.28
14.41
13.19
11.91
10.82
10.06
9.59
9.36
9.25
9.17
9.09
9.06
9.11
9.22
9.21
8.84
7.87
6.19
3.91
1.32
-1.2
-3.37
-5.07
-6.44
-7.76
-9.38
-11.49
-14.12
-17.03
-19.77
-21.79
-22.52
-21.54
-18.74
-14.36
-8.9
-3.06
2.45
7.15
10.75
13.21
14.57
14.9
14.25
12.85
11.02
9.26
8.01
7.58
7.94
8.82
9.78
10.42
10.59
10.32
9.72
8.84
7.61
5.88
3.57
0.77
-2.2
-4.96
-7.18
-8.77
-9.92
-11.02
-12.5
-14.6
-17.35
-20.53
-23.74
-26.56
-28.54
-29.25
-28.33
-25.63
-21.22
-15.52
-9.19
-2.96
2.56
6.99
10.25
12.43
13.7
14.24
14.16
13.63
12.85
12.04
11.39
11.03
10.94
11.05
11.22
11.34
11.35
11.22
10.9
10.38
9.62
8.57
7.22
5.62
3.81
1.92
0.07
-1.64
-3.18
-4.58
-5.98
-7.56
-9.57
-12.2
-15.55
-19.61
-24.08
-28.43
-31.85
-33.52
-32.8
-29.52
-24.03
-17.18
-9.96
-3.26
2.36
6.68
9.74
11.66
12.59
12.71
12.23
11.37
10.45
9.75
9.52
9.87
10.77
11.98
13.2
14.1
14.45
14.17
13.25
11.83
10
7.88
5.58
3.17
0.75
-1.64
-3.99
-6.3
-8.54
-10.57
-12.26
-13.55
-14.44
-15.13
-15.89
-17
-18.67
-20.9
-23.51
-26.04
-27.91
-28.47
-27.2
-23.88
-18.68
-12.24
-5.39
0.97
6.18
9.93
12.31
13.6
14.14
14.2
13.91
13.37
12.72
12.15
11.91
12.16
12.89
13.98
15.18
16.2
16.85
17.06
16.86
16.32
15.56
14.6
13.38
11.8
9.73
7.15
4.19
1.1
-1.79
-4.23
-6.11
-7.57
-8.87
-10.38
-12.31
-14.73
-17.55
-20.4
-22.78
-24.14
-23.96
-21.91
-17.97
-12.49
-6.12
0.32
6.11
10.71
13.92
15.72
16.28
15.78
14.43
12.5
10.31
8.24
6.63
5.62
5.23
5.28
5.51
5.77
5.93
5.99
5.98
5.91
5.74
5.4
4.81
3.93
2.77
1.45
0.05
-1.29
-2.47
-3.43
-4.17
-4.83
-5.65
-7
-9.22
-12.51
-16.78
-21.56
-26.09
-29.38
-30.62
-29.3
-25.43
-19.53
-12.52
-5.39
0.99
6.07
9.71
12.08
13.45
14.09
14.17
13.75
12.92
11.86
10.86
10.16
9.89
10
10.2
10.22
9.85
9.1
8.12
7.16
6.43
5.98
5.68
5.25
4.44
3.12
1.29
-0.87
-3.15
-5.42
-7.64
-9.85
-12.13
-14.52
-17.08
-19.84
-22.81
-25.93
-28.91
-31.21
-32.12
-31.04
-27.65
-22.13
-15.13
-7.55
-0.35
5.8
10.56
13.93
16.12
17.36
17.84
17.7
17.12
16.29
15.44
14.79
14.47
14.43
14.5
14.44
14.03
13.18
11.92
10.4
8.79
7.22
5.7
4.16
2.44
0.38
-1.99
-4.54
-7.02
-9.24
-11.08
-12.6
-14.03
-15.67
-17.79
-20.58
-23.95
-27.61
-31.06
-33.67
-34.85
-34.18
-31.48
-26.86
-20.75
-13.81
-6.78
-0.37
4.9
8.77
11.27
12.57
12.93
12.61
11.87
10.96
10.2
9.9
10.26
11.32
12.85
14.45
15.67
16.2
15.96
15.04
13.66
12.03
10.3
8.53
6.75
4.95
3.16
1.34
-0.53
-2.51
-4.63
-6.88
-9.21
-11.61
-14.14
-16.93
-20.07
-23.56
-27.13
-30.29
-32.38
-32.72
-30.91
-26.9
-21.04
-14
-6.54
0.65
7.01
12.19
15.97
18.23
19.01
18.53
17.17
15.4
13.68
12.31
11.47
11.14
11.24
11.62
12.14
12.67
13.1
13.35
13.39
13.17
12.66
11.8
10.48
8.62
6.23
3.45
0.6
-1.92
-3.78
-4.91
-5.6
-6.38
-7.96
-10.77
-14.87
-19.86
-24.89
-29
-31.31
-31.28
-28.78
-24.11
-17.91
-10.98
-4.14
1.94
6.92
10.67
13.28
14.92
15.66
15.59
14.85
13.69
12.49
11.65
11.42
11.76
12.43
13.06
13.4
13.39
13.19
12.99
12.86
12.7
12.26
11.27
9.56
7.15
4.23
1.13
-1.86
-4.48
-6.73
-8.74
-10.82
-13.27
-16.31
-20.04
-24.4
-29.23
-34.12
-38.58
-41.84
-43.15
-41.84
-37.64
-30.84
-22.22
-12.93
-4.07
3.5
9.39
13.6
16.39
18.09
18.96
19.18
18.9
18.3
17.57
16.93
16.57
16.57
16.92
17.54
18.3
19.04
19.63
19.91
19.8
19.25
18.28
16.95
15.35
13.51
11.38
8.92
6.09
2.94
-0.35
-3.56
-6.46
-8.93
-11.05
-13.05
-15.26
-17.96
-21.33
-25.4
-29.95
-34.54
-38.46
-40.89
-41.03
-38.41
-33.03
-25.5
-16.82
-8.06
-0.13
6.51
11.72
15.62
18.36
20.07
20.85
20.84
20.35
19.7
19.21
19.02
19.12
19.39
19.7
19.99
20.26
20.48
20.55
20.38
19.8
18.76
17.24
15.32
13.14
10.81
8.37
5.88
3.33
0.71
-1.99
-4.76
-7.5
-10.09
-12.39
-14.33
-15.98
-17.59
-19.53
-22.18
-25.79
-30.29
-35.18
-39.59
-42.47
-42.9
-40.39
-35.1
-27.7
-19.23
-10.76
-3.04
3.51
8.85
13.05
16.21
18.34
19.44
19.62
19.1
18.25
17.48
17.07
17.17
17.73
18.64
19.74
20.91
21.99
22.8
23.24
23.17
22.6
21.6
20.24
18.58
16.63
14.37
11.83
9.11
6.37
3.73
1.23
-1.16
-3.56
-6.05
-8.7
-11.56
-14.75
-18.36
-22.42
-26.82
-31.1
-34.53
-36.24
-35.49
-31.93
-25.78
-17.82
-9.14
-0.87
6.07
11.25
14.62
16.46
17.17
17.1
16.51
15.56
14.46
13.39
12.63
12.43
12.89
13.92
15.23
16.47
17.34
17.78
17.85
17.75
17.59
17.28
16.53
14.99
12.45
9
5.05
1.11
-2.35
-5.14
-7.42
-9.54
-11.89
-14.78
-18.33
-22.56
-27.32
-32.24
-36.7
-39.85
-40.74
-38.7
-33.55
-25.84
-16.59
-7.07
1.63
8.88
14.51
18.63
21.47
23.17
23.84
23.51
22.35
20.67
18.93
17.55
16.84
16.83
17.34
18
18.45
18.47
18.02
17.3
16.51
15.77
15.01
14.03
12.56
10.42
7.59
4.19
0.54
-2.99
-6.11
-8.64
-10.67
-12.48
-14.48
-17.09
-20.6
-25.11
-30.44
-36.15
-41.5
-45.58
-47.48
-46.49
-42.41
-35.63
-27.1
-17.99
-9.33
-1.77
4.47
9.43
13.26
16.07
17.93
18.96
19.39
19.53
19.71
20.13
20.9
21.92
23.05
24.06
24.83
25.2
25.16
24.68
23.75
22.3
20.25
17.5
14.1
10.25
6.28
2.55
-0.75
-3.58
-6.1
-8.51
-10.94
-13.43
-16.03
-18.85
-22.03
-25.65
-29.5
-33.04
-35.45
-35.9
-33.81
-29.14
-22.32
-14.17
-5.63
2.47
9.53
15.15
19.13
21.48
22.35
22.12
21.23
20.19
19.4
19.02
19.07
19.44
20.03
20.78
21.62
22.45
23.06
23.21
22.71
21.48
19.61
17.19
14.32
11.05
7.46
3.76
0.22
-2.88
-5.43
-7.5
-9.43
-11.65
-14.57
-18.43
-23.16
-28.3
-33.02
-36.27
-37.13
-35.06
-30.11
-22.93
-14.48
-5.8
2.22
8.98
14.12
17.49
19.15
19.42
18.74
17.62
16.49
15.67
15.28
15.41
16.06
17.12
18.41
19.66
20.58
21.03
21.04
20.7
20.09
19.17
17.73
15.58
12.61
8.94
4.9
0.93
-2.6
-5.52
-7.9
-10.06
-12.45
-15.53
-19.6
-24.63
-30.18
-35.4
-39.27
-40.76
-39.23
-34.57
-27.32
-18.49
-9.27
-0.77
6.29
11.65
15.44
17.96
19.58
20.54
21.07
21.36
21.6
21.93
22.46
23.15
23.82
24.32
24.45
24.12
23.36
22.3
21.08
19.82
18.54
17.13
15.4
13.15
10.31
6.98
3.5
0.24
-2.51
-4.65
-6.36
-7.95
-9.79
-12.22
-15.46
-19.53
-24.19
-28.88
-32.72
-34.63
-33.61
-29.08
-21.17
-10.78
0.59
11.25
19.79
25.39
28.01
28.21
26.87
24.78
22.54
20.39
18.46
16.79
15.54
14.82
14.64
14.86
15.14
15.14
14.6
13.49
12.02
10.47
9.07
7.94
6.93
5.79
4.19
1.92
-1.05
-4.47
-7.94
-11.08
-13.64
-15.72
-17.58
-19.62
-22.15
-25.36
-29.21
-33.51
-37.92
-41.84
-44.51
-45.12
-42.99
-37.9
-30.25
-20.92
-11.11
-2.01
5.56
11.23
15.03
17.3
18.47
18.87
18.74
18.2
17.37
16.44
15.67
15.33
15.58
16.32
17.26
17.94
18.05
17.5
16.51
15.37
14.29
13.26
11.97
10.06
7.36
3.99
0.31
-3.22
-6.25
-8.75
-10.9
-13.12
-15.78
-19.12
-23.21
-27.84
-32.62
-37
-40.3
-41.84
-41.05
-37.65
-31.76
-23.92
-14.98
-5.9
2.43
9.45
14.9
18.75
21.17
22.26
22.25
21.43
20.19
18.96
18.11
17.89
18.32
19.25
20.43
21.48
22.1
22.04
21.17
19.58
17.52
15.3
13.17
11.21
9.3
7.23
4.82
1.93
-1.43
-5.12
-8.91
-12.51
-15.68
-18.29
-20.37
-22.25
-24.43
-27.43
-31.52
-36.47
-41.49
-45.36
-46.89
-45.25
-40.34
-32.77
-23.68
-14.3
-5.65
1.67
7.52
11.93
15.03
16.9
17.64
17.39
16.47
15.24
14.12
13.4
13.19
13.39
13.84
14.34
14.73
14.94
14.93
14.74
14.37
13.78
12.94
11.73
10.06
7.88
5.23
2.28
-0.74
-3.62
-6.36
-9.07
-11.97
-15.27
-18.98
-23.12
-27.55
-32.01
-36.09
-39.18
-40.51
-39.38
-35.44
-28.89
-20.48
-11.34
-2.54
5.14
11.28
15.81
18.77
20.23
20.28
19.14
17.2
15
13.08
11.82
11.41
11.73
12.48
13.35
14.12
14.64
14.84
14.71
14.22
13.35
12
10.12
7.7
4.82
1.7
-1.41
-4.35
-7.04
-9.58
-12.26
-15.41
-19.36
-24.26
-30.02
-36.13
-41.67
-45.5
-46.47
-43.92
-37.88
-29.12
-18.89
-8.58
0.75
8.54
14.57
18.99
21.94
23.6
24.15
23.86
23.06
22.17
21.5
21.24
21.39
21.78
22.18
22.32
22.04
21.27
20.07
18.55
16.77
14.73
12.32
9.4
5.88
1.86
-2.32
-6.19
-9.34
-11.63
-13.28
-14.83
-16.89
-19.92
-24.03
-28.91
-33.86
-37.98
-40.34
-40.16
-37.04
-31.08
-22.95
-13.71
-4.58
3.48
9.96
14.81
18.34
20.9
22.71
23.8
24.18
23.92
23.28
22.61
22.21
22.2
22.47
22.85
23.11
23.19
23.13
22.98
22.68
22.1
21
19.21
16.65
13.39
9.64
5.71
1.86
-1.74
-5.02
-8.1
-11.23
-14.73
-18.87
-23.8
-29.36
-35.08
-40.12
-43.5
-44.23
-41.75
-35.99
-27.53
-17.47
-7.12
2.28
9.96
15.55
19.14
21.03
21.61
21.2
20.09
18.61
17.16
16.18
16.04
16.87
18.46
20.37
22.06
23.11
23.29
22.63
21.27
19.43
17.3
14.92
12.29
9.31
5.9
2.08
-1.99
-6.05
-9.72
-12.74
-15.07
-16.93
-18.75
-21.04
-24.09
-27.88
-31.98
-35.6
-37.81
-37.72
-34.85
-29.2
-21.4
-12.39
-3.25
5.07
11.91
16.95
20.14
21.6
21.55
20.33
18.42
16.36
14.66
13.66
13.52
14.11
15.14
16.27
17.22
17.83
18.12
18.15
17.96
17.47
16.57
15.11
13.05
10.44
7.44
4.29
1.15
-1.87
-4.75
-7.47
-10.16
-12.98
-16.24
-20.19
-24.88
-29.96
-34.58
-37.57
-37.83
-34.7
-28.35
-19.64
-9.88
-0.38
7.86
14.29
18.74
21.21
21.82
20.74
18.37
15.26
12.17
9.73
8.39
8.23
9
10.31
11.74
12.97
13.81
14.17
14.03
13.36
12.15
10.39
8.13
5.4
2.37
-0.75
-3.73
-6.37
-8.63
-10.64
-12.68
-15.04
-17.94
-21.43
-25.38
-29.44
-33.08
-35.6
-36.32
-34.64
-30.36
-23.78
-15.64
-6.97
1.18
8
13.04
16.21
17.65
17.64
16.54
14.84
13.02
11.57
10.81
10.85
11.58
12.74
14.05
15.28
16.25
16.78
16.71
15.9
14.32
12.06
9.32
6.36
3.35
0.37
-2.56
-5.44
-8.23
-10.93
-13.67
-16.69
-20.29
-24.55
-29.14
-33.26
-35.86
-35.97
-33.13
-27.59
-20.24
-12.19
-4.5
2.13
7.45
11.46
14.25
15.88
16.38
15.88
14.64
13.08
11.64
10.64
10.17
10.08
10.05
9.81
9.16
8.08
6.64
4.9
2.94
0.8
-1.38
-3.45
-5.27
-6.85
-8.4
-10.27
-12.82
-16.26
-20.42
-24.86
-28.83
-31.5
-32.11
-30.23
-25.77
-19.11
-11
-2.4
5.77
12.8
18.3
22.16
24.4
25.08
24.22
21.97
18.63
14.77
11.04
8.09
6.29
5.67
5.96
6.68
7.39
7.66
7.23
5.99
3.99
1.38
-1.61
-4.73
-7.79
-10.82
-13.97
-17.55
-21.87
-27.01
-32.68
-38.24
-42.7
-45.03
-44.43
-40.55
-33.65
-24.54
-14.34
-4.22
4.79
12
17.08
20
21.03
20.61
19.29
17.63
16.08
14.91
14.18
13.84
13.72
13.68
13.6
13.42
13.08
12.57
11.81
10.74
9.26
7.29
4.83
1.9
-1.37
-4.91
-8.68
-12.7
-17.13
-22.13
-27.72
-33.58
-39.03
-43.07
-44.59
-42.8
-37.52
-29.29
-19.25
-8.77
0.82
8.59
14.04
17.17
18.28
17.86
16.54
14.8
13.04
11.5
10.28
9.45
9.06
9.1
9.51
10.15
10.74
11.09
11.01
10.48
9.54
8.26
6.63
4.61
2.19
-0.64
-3.74
-6.97
-10.26
-13.7
-17.52
-21.97
-27.06
-32.35
-36.92
-39.62
-39.45
-35.9
-29.19
-20.18
-10.11
-0.22
8.54
15.58
20.72
24
25.65
25.92
25.15
23.69
21.91
20.14
18.63
17.49
16.73
16.26
15.96
15.73
15.48
15.07
14.36
13.14
11.26
8.68
5.56
2.11
-1.35
-4.65
-7.77
-10.86
-14.2
-18.08
-22.66
-27.84
-33.2
-37.97
-41.18
-41.87
-39.37
-33.6
-25.15
-15.07
-4.67
4.93
12.94
18.99
23.04
25.24
25.91
25.43
24.33
23.11
22.19
21.83
22.06
22.75
23.63
24.45
24.94
24.96
24.48
23.58
22.35
20.83
18.87
16.19
12.57
7.95
2.58
-3.03
-8.29
-12.72
-16.13
-18.63
-20.64
-22.64
-25.23
-28.76
-33.31
-38.45
-43.24
-46.47
-46.94
-43.96
-37.57
-28.5
-17.95
-7.15
2.88
11.6
18.75
24.3
28.27
30.67
31.66
31.53
30.67
29.54
28.56
28.06
28.14
28.8
29.82
30.85
31.5
31.46
30.6
29.04
27.05
24.94
22.85
20.69
18.25
15.27
11.63
7.51
3.22
-0.85
-4.46
-7.55
-10.37
-13.28
-16.68
-20.9
-26.06
-32.08
-38.53
-44.7
-49.62
-52.32
-52.03
-48.44
-41.81
-32.84
-22.56
-11.99
-2.03
6.71
13.88
19.38
23.31
25.82
27.17
27.6
27.32
26.61
25.75
25.04
24.68
24.73
25.05
25.35
25.34
24.79
23.67
22.12
20.37
18.63
16.96
15.28
13.43
11.3
8.88
6.32
3.8
1.46
-0.67
-2.64
-4.65
-6.86
-9.5
-12.79
-16.9
-21.87
-27.56
-33.48
-38.82
-42.61
-43.91
-42.16
-37.25
-29.66
-20.27
-10.18
-0.46
8.09
14.98
20.06
23.39
25.17
25.7
25.31
24.39
23.33
22.5
22.14
22.37
23.16
24.35
25.68
26.83
27.47
27.34
26.33
24.53
22.22
19.75
17.39
15.22
13.15
11
8.64
6
3.22
0.48
-2.05
-4.31
-6.36
-8.38
-10.61
-13.29
-16.64
-20.78
-25.62
-30.83
-35.69
-39.27
-40.55
-38.84
-33.99
-26.47
-17.28
-7.65
1.29
8.72
14.33
18.12
20.39
21.47
21.71
21.38
20.7
19.87
19.1
18.61
18.61
19.19
20.29
21.66
22.94
23.76
23.89
23.28
22.04
20.38
18.54
16.67
14.76
12.69
10.29
7.46
4.23
0.76
-2.7
-5.91
-8.74
-11.23
-13.48
-15.68
-17.97
-20.51
-23.5
-27.16
-31.59
-36.6
-41.57
-45.47
-47.07
-45.46
-40.31
-32.14
-22.08
-11.56
-1.87
6.21
12.5
17.16
20.55
22.95
24.51
25.29
25.4
25.05
24.48
23.99
23.66
23.51
23.44
23.38
23.36
23.41
23.52
23.5
23.16
22.29
20.88
19.12
17.18
15.2
13.11
10.71
7.85
4.5
0.85
-2.78
-6.08
-8.92
-11.32
-13.43
-15.47
-17.67
-20.27
-23.45
-27.29
-31.66
-36.11
-39.83
-41.85
-41.26
-37.57
-30.95
-22.24
-12.72
-3.65
4.01
9.9
14.17
17.19
19.38
20.89
21.75
21.9
21.4
20.48
19.49
18.75
18.42
18.48
18.78
19.17
19.52
19.79
19.89
19.74
19.21
18.19
16.63
14.51
11.91
9.01
5.98
2.99
0.13
-2.6
-5.23
-7.76
-10.22
-12.53
-14.67
-16.72
-18.85
-21.29
-24.29
-27.91
-31.96
-36.04
-39.51
-41.64
-41.71
-39.21
-34.02
-26.55
-17.67
-8.54
-0.26
6.42
11.21
14.26
15.94
16.64
16.63
16.12
15.3
14.37
13.56
13.09
13.02
13.37
14.05
14.91
15.81
16.63
17.21
17.46
17.29
16.69
15.65
14.22
12.4
10.22
7.75
5.1
2.45
0.02
-2.08
-3.81
-5.33
-6.92
-8.95
-11.73
-15.41
-19.85
-24.6
-28.99
-32.21
-33.49
-32.35
-28.6
-22.6
-15.06
-6.98
0.59
6.86
11.41
14.24
15.65
16.02
15.67
14.82
13.67
12.41
11.25
10.42
10.06
10.14
10.57
11.11
11.55
11.68
11.43
10.82
9.91
8.75
7.31
5.47
3.11
0.24
-2.96
-6.11
-8.82
-10.86
-12.25
-13.29
-14.44
-16.13
-18.66
-22.11
-26.27
-30.64
-34.47
-36.96
-37.36
-35.28
-30.76
-24.33
-16.76
-8.92
-1.57
4.72
9.62
12.96
14.75
15.21
14.68
13.56
12.25
11.06
10.12
9.5
9.13
8.98
8.94
8.95
8.95
8.89
8.74
8.48
8.07
7.38
6.27
4.62
2.39
-0.31
-3.21
-5.98
-8.4
-10.46
-12.37
-14.55
-17.35
-20.98
-25.26
-29.72
-33.62
-36.2
-36.78
-35.03
-30.93
-24.86
-17.5
-9.73
-2.36
3.95
8.9
12.41
14.6
15.73
16.06
15.88
15.42
14.89
14.41
13.98
13.53
12.97
12.24
11.34
10.35
9.37
8.47
7.69
6.96
6.2
5.25
3.98
2.28
0.16
-2.25
-4.76
-7.18
-9.48
-11.85
-14.59
-18.08
-22.45
-27.47
-32.48
-36.51
-38.64
-38.25
-35.25
-30
-23.22
-15.7
-8.18
-1.23
4.78
9.55
12.93
14.89
15.53
15.09
13.92
12.4
10.85
9.49
8.39
7.57
6.99
6.64
6.52
6.63
6.88
7.12
7.11
6.68
5.68
4.17
2.25
0.14
-1.95
-3.89
-5.66
-7.3
-8.95
-10.73
-12.75
-15.11
-17.85
-20.88
-24.01
-26.82
-28.72
-29.04
-27.27
-23.18
-17
-9.42
-1.41
6.05
12.18
16.58
19.2
20.28
20.15
19.11
17.46
15.42
13.3
11.38
9.96
9.18
8.97
9.22
9.7
10.24
10.74
11.12
11.28
11.13
10.51
9.32
7.5
5.12
2.34
-0.63
-3.56
-6.31
-8.83
-11.25
-13.85
-16.87
-20.43
-24.42
-28.37
-31.56
-33.17
-32.5
-29.24
-23.55
-16.08
-7.78
0.34
7.48
13.13
17.15
19.58
20.65
20.62
19.79
18.45
16.86
15.27
13.89
12.85
12.23
12.04
12.18
12.5
12.78
12.83
12.52
11.77
10.58
8.89
6.72
4.09
1.12
-2
-5.08
-7.98
-10.66
-13.27
-16.03
-19.25
-23.08
-27.5
-32.19
-36.57
-39.85
-41.26
-40.24
-36.55
-30.44
-22.6
-13.97
-5.6
1.67
7.35
11.34
13.9
15.41
16.26
16.65
16.65
16.31
15.73
15.1
14.69
14.73
15.3
16.31
17.5
18.58
19.29
19.47
18.99
17.73
15.65
12.73
9.08
4.97
0.77
-3.19
-6.75
-9.87
-12.75
-15.68
-19.01
-22.99
-27.69
-32.93
-38.16
-42.48
-44.89
-44.48
-40.79
-34.01
-24.95
-14.84
-4.94
3.76
10.74
15.96
19.65
22.16
23.73
24.51
24.56
23.96
22.88
21.53
20.09
18.69
17.34
16.04
14.8
13.67
12.74
12.05
11.57
11.16
10.59
9.64
8.13
5.97
3.25
0.11
-3.15
-6.2
-8.79
-10.84
-12.55
-14.33
-16.74
-20.18
-24.78
-30.26
-35.92
-40.84
-44.09
-44.86
-42.79
-37.91
-30.75
-22.17
-13.18
-4.67
2.77
8.86
13.62
17.11
19.41
20.55
20.62
19.88
18.76
17.74
17.2
17.24
17.67
18.17
18.38
18.15
17.56
16.85
16.24
15.84
15.58
15.2
14.42
13.06
11.1
8.74
6.24
3.84
1.65
-0.37
-2.36
-4.47
-6.84
-9.58
-12.85
-16.74
-21.27
-26.12
-30.65
-33.93
-35.04
-33.31
-28.64
-21.52
-12.91
-3.93
4.41
11.38
16.6
19.99
21.67
21.88
20.93
19.2
17.13
15.14
13.63
12.84
12.81
13.31
14.04
14.64
14.93
14.91
14.66
14.29
13.74
12.8
11.19
8.73
5.44
1.61
-2.31
-5.87
-8.77
-10.97
-12.74
-14.49
-16.65
-19.56
-23.33
-27.84
-32.68
-37.14
-40.34
-41.4
-39.72
-35.19
-28.28
-19.87
-11.01
-2.54
4.94
11.23
16.23
19.94
22.38
23.6
23.88
23.55
23.09
22.8
22.82
23.08
23.39
23.54
23.43
23.01
22.33
21.44
20.36
19.09
17.59
15.85
13.84
11.52
8.88
5.89
2.64
-0.69
-3.84
-6.61
-8.9
-10.79
-12.6
-14.71
-17.53
-21.31
-26.04
-31.36
-36.62
-40.95
-43.46
-43.45
-40.56
-34.94
-27.17
-18.15
-8.86
-0.22
7.19
13.1
17.49
20.51
22.37
23.24
23.29
22.76
21.91
21.05
20.41
20.07
19.99
19.97
19.82
19.47
18.93
18.29
17.63
16.95
16.08
14.83
13.03
10.6
7.66
4.4
1.03
-2.24
-5.32
-8.2
-10.95
-13.67
-16.53
-19.67
-23.23
-27.24
-31.59
-35.96
-39.79
-42.32
-42.77
-40.54
-35.45
-27.88
-18.7
-9.06
-0.05
7.56
13.51
17.87
20.9
22.82
23.8
23.92
23.28
22.13
20.82
19.74
19.15
19.13
19.45
19.81
19.93
19.7
19.21
18.63
18.11
17.64
17.04
16.08
14.56
12.4
9.63
6.43
3.03
-0.34
-3.47
-6.31
-8.96
-11.66
-14.71
-18.35
-22.62
-27.36
-32.1
-36.2
-38.93
-39.63
-37.89
-33.62
-27.15
-19.08
-10.21
-1.38
6.62
13.2
18.02
21.01
22.36
22.47
21.86
20.99
20.2
19.68
19.49
19.64
20.1
20.78
21.52
22.16
22.54
22.57
22.22
21.49
20.35
18.7
16.45
13.49
9.87
5.8
1.58
-2.48
-6.12
-9.28
-12.06
-14.74
-17.65
-21.06
-25.04
-29.36
-33.47
-36.59
-37.91
-36.83
-33.09
-26.93
-18.96
-10.12
-1.41
6.35
12.57
17.01
19.71
20.91
20.92
20.09
18.8
17.34
16
15.01
14.49
14.41
14.66
15.02
15.29
15.31
15.03
14.44
13.59
12.46
11
9.06
6.59
3.57
0.21
-3.23
-6.42
-9.18
-11.48
-13.54
-15.72
-18.41
-21.88
-26.15
-30.96
-35.67
-39.46
-41.45
-40.91
-37.53
-31.54
-23.65
-14.88
-6.26
1.47
7.9
12.92
16.61
19.09
20.49
21.02
20.94
20.6
20.38
20.5
21.01
21.71
22.28
22.34
21.7
20.36
18.59
16.74
15.12
13.79
12.47
10.74
8.25
4.98
1.24
-2.47
-5.74
-8.47
-10.88
-13.36
-16.28
-19.84
-24.04
-28.68
-33.43
-37.75
-40.84
-41.9
-40.25
-35.66
-28.5
-19.64
-10.2
-1.28
6.32
12.22
16.43
19.18
20.82
21.73
22.22
22.49
22.69
22.88
23.07
23.21
23.22
23.03
22.64
22.1
21.49
20.91
20.34
19.63
18.52
16.71
14.02
10.41
6.11
1.53
-2.84
-6.59
-9.56
-11.83
-13.75
-15.82
-18.5
-22.1
-26.55
-31.48
-36.16
-39.65
-41.09
-39.81
-35.69
-29.08
-20.81
-11.89
-3.29
4.33
10.59
15.41
18.8
20.89
21.8
21.76
21.08
20.11
19.2
18.53
18.12
17.84
17.53
17.08
16.48
15.75
14.95
14.06
13.01
11.72
10.16
8.29
6.16
3.83
1.33
-1.3
-4.07
-7.01
-10.15
-13.54
-17.24
-21.17
-25.17
-28.87
-31.73
-33.03
-32.11
-28.53
-22.29
-13.9
-4.27
5.49
14.23
21.05
25.34
26.76
25.36
21.61
16.31
10.56
5.42
1.64
-0.51
-1.26
-1.17
-0.75
-0.26
0.39
1.45
3.1
5.21
7.33
8.83
9.18
8.11
5.74
2.44
-1.28
-4.93
-8.28
-11.23
-13.93
-16.68
-19.8
-23.63
-28.23
-33.37
-38.44
-42.56
-44.73
-44.17
-40.52
-33.99
-25.31
-15.55
-5.84
2.91
10.15
15.72
19.73
22.41
24.06
24.93
25.3
25.4
25.42
25.45
25.46
25.36
25.06
24.52
23.78
22.93
22.02
21.03
19.85
18.26
16.02
13.01
9.33
5.31
1.42
-1.86
-4.29
-5.99
-7.4
-9.1
-11.63
-15.23
-19.74
-24.66
-29.2
-32.56
-33.96
-32.92
-29.28
-23.27
-15.47
-6.7
2.12
10.15
16.8
21.74
24.96
26.7
27.3
27.12
26.46
25.56
24.59
23.68
22.87
22.2
21.62
21.09
20.55
19.99
19.4
18.74
17.89
16.71
14.99
12.63
9.63
6.16
2.55
-0.84
-3.76
-6.11
-8.13
-10.19
-12.74
-16.11
-20.36
-25.25
-30.28
-34.7
-37.69
-38.53
-36.72
-32.26
-25.6
-17.58
-9.19
-1.39
5.24
10.41
14.06
16.25
17.08
16.69
15.37
13.57
11.83
10.61
10.13
10.28
10.74
11.15
11.25
11.01
10.57
10.14
9.81
9.49
8.9
7.73
5.76
2.96
-0.43
-4.01
-7.38
-10.21
-12.42
-14.14
-15.75
-17.78
-20.62
-24.4
-28.85
-33.2
-36.5
-37.79
-36.47
-32.39
-25.92
-17.77
-8.82
-0.01
7.88
14.16
18.47
20.73
21.19
20.33
18.66
16.65
14.57
12.57
10.76
9.28
8.31
8
8.35
9.16
10.1
10.81
11
10.58
9.55
8.05
6.17
4.01
1.64
-0.82
-3.3
-5.78
-8.35
-11.24
-14.61
-18.44
-22.39
-25.8
-27.81
-27.73
-25.19
-20.31
-13.76
-6.42
0.77
7.03
11.95
15.34
17.24
17.78
17.11
15.39
12.84
9.81
6.7
3.98
2.05
1.17
1.36
2.38
3.81
5.22
6.26
6.83
6.93
6.69
6.15
5.32
4.16
2.64
0.82
-1.2
-3.35
-5.72
-8.48
-11.87
-15.87
-20.16
-24.03
-26.55
-26.88
-24.54
-19.66
-12.93
-5.38
1.94
8.2
12.97
16.16
17.9
18.43
18.02
16.94
15.53
14.13
12.98
12.25
11.92
11.86
11.91
11.97
11.92
11.73
11.32
10.58
9.43
7.81
5.76
3.35
0.68
-2.18
-5.23
-8.56
-12.25
-16.42
-21.14
-26.34
-31.7
-36.63
-40.22
-41.51
-39.8
-34.92
-27.39
-18.35
-9.17
-1.08
5.25
9.66
12.47
14.12
14.95
15.09
14.63
13.59
12.21
10.72
9.38
8.31
7.52
6.91
6.41
5.96
5.56
5.21
4.83
4.29
3.47
2.3
0.8
-0.93
-2.79
-4.73
-6.76
-8.99
-11.56
-14.65
-18.28
-22.24
-26.05
-28.95
-30.18
-29.09
-25.52
-19.72
-12.4
-4.48
3.13
9.73
14.87
18.46
20.6
21.53
21.51
20.78
19.51
17.88
16.05
14.29
12.88
12.07
11.92
12.32
12.98
13.57
13.8
13.54
12.74
11.46
9.72
7.62
5.3
2.97
0.84
-0.98
-2.59
-4.3
-6.51
-9.5
-13.19
-17.08
-20.38
-22.2
-21.85
-19.04
-14
-7.36
-0.1
6.8
12.43
16.23
18.06
18.1
16.72
14.42
11.62
8.69
5.98
3.77
2.28
1.58
1.55
1.87
2.17
2.1
1.46
0.25
-1.41
-3.29
-5.15
-6.85
-8.36
-9.8
-11.46
-13.68
-16.72
-20.64
-25.24
-30.02
-34.26
-37.16
-37.99
-36.23
-31.78
-24.95
-16.48
-7.37
1.41
9.05
15.15
19.6
22.48
23.91
24.08
23.19
21.5
19.42
17.33
15.58
14.35
13.68
13.41
13.32
13.13
12.59
11.59
10.1
8.28
6.31
4.31
2.3
0.05
-2.73
-6.33
-10.79
-15.93
-21.22
-25.92
-29.24
-30.49
-29.25
-25.47
-19.54
-12.16
-4.21
3.44
10.14
15.54
19.56
22.23
23.65
23.88
22.97
21.11
18.6
15.87
13.36
11.42
10.23
9.78
9.91
10.37
10.87
11.15
11.02
10.35
9.06
7.06
4.25
0.57
-3.98
-9.26
-14.94
-20.51
-25.37
-28.86
-30.35
-29.44
-25.98
-20.27
-12.95
-4.88
3.02
10
15.53
19.33
21.31
21.53
20.22
17.77
14.71
11.68
9.18
7.51
6.74
6.67
6.99
7.36
7.55
7.37
6.82
5.99
5.02
4.02
3.04
2
0.7
-1.11
-3.6
-6.88
-10.92
-15.64
-20.85
-26.18
-31.04
-34.62
-36.04
-34.68
-30.42
-23.71
-15.5
-6.92
1.06
7.78
12.88
16.29
18.04
18.31
17.44
15.87
14.11
12.54
11.36
10.61
10.23
10.17
10.46
11.08
11.94
12.78
13.24
13.01
11.97
10.15
7.75
4.99
2.02
-1.06
-4.22
-7.49
-10.93
-14.59
-18.57
-22.79
-26.96
-30.55
-32.84
-33.19
-31.14
-26.72
-20.39
-12.91
-5.21
1.9
7.84
12.33
15.27
16.79
17.09
16.43
15.13
13.57
12.16
11.25
11.03
11.53
12.55
13.75
14.74
15.24
15.13
14.47
13.42
12.15
10.72
9.09
7.17
4.88
2.2
-0.84
-4.26
-8.1
-12.39
-17.02
-21.65
-25.65
-28.3
-28.85
-26.95
-22.62
-16.34
-8.85
-1.03
6.32
12.58
17.35
20.42
21.75
21.47
19.84
17.28
14.27
11.27
8.7
6.8
5.7
5.4
5.8
6.69
7.8
8.79
9.35
9.29
8.53
7.14
5.24
2.98
0.51
-2.11
-4.77
-7.45
-10.18
-13.1
-16.37
-20.11
-24.25
-28.4
-31.79
-33.54
-32.82
-29.26
-23.06
-15.02
-6.28
2.03
9.07
14.44
18.17
20.49
21.71
22.09
21.76
20.92
19.72
18.4
17.18
16.24
15.65
15.33
15.09
14.72
14.08
13.15
12.01
10.74
9.37
7.84
6.04
3.93
1.52
-1.07
-3.7
-6.34
-9.07
-12.08
-15.63
-19.78
-24.36
-28.86
-32.47
-34.34
-33.8
-30.63
-25.14
-18.07
-10.38
-2.96
3.56
8.82
12.68
15.11
16.16
15.97
14.85
13.23
11.59
10.28
9.46
9.08
9.02
9.11
9.26
9.46
9.72
10.05
10.37
10.53
10.24
9.25
7.4
4.77
1.66
-1.53
-4.47
-7
-9.21
-11.35
-13.69
-16.43
-19.7
-23.49
-27.59
-31.5
-34.51
-35.72
-34.45
-30.52
-24.34
-16.83
-9.13
-2.19
3.45
7.64
10.53
12.31
13.18
13.24
12.65
11.59
10.39
9.35
8.79
8.87
9.58
10.77
12.13
13.33
14.11
14.33
13.99
13.24
12.2
10.98
9.57
7.92
5.97
3.72
1.25
-1.44
-4.4
-7.77
-11.68
-16.19
-21.11
-25.97
-30.07
-32.57
-32.74
-30.2
-25.01
-17.77
-9.46
-1.18
6.12
11.82
15.71
17.86
18.52
18
16.58
14.59
12.35
10.23
8.47
7.28
6.66
6.51
6.6
6.71
6.61
6.21
5.43
4.33
2.99
1.53
0.07
-1.33
-2.58
-3.69
-4.7
-5.74
-7.03
-8.77
-11.19
-14.33
-17.94
-21.43
-23.96
-24.67
-22.93
-18.64
-12.3
-4.84
2.63
9.13
14.01
17.03
18.32
18.3
17.48
16.3
15.08
13.92
12.79
11.66
10.57
9.61
8.96
8.65
8.66
8.75
8.63
8.04
6.79
4.89
2.46
-0.27
-2.93
-5.09
-6.29
-6.32
-5.36
-4.11
-3.61
-4.88
-8.44
-14.01
-20.55
-26.56
-30.65
-32
-30.51
-26.74
-21.59
-15.93
-10.42
-5.44
-1.18
2.25
4.73
6.16
6.56
6.06
5.04
3.9
3.01
2.54
2.5
2.7
2.98
3.29
3.59
3.93
4.32
4.72
5.02
5.06
4.66
3.73
2.27
0.39
-1.71
-3.85
-5.98
-8.11
-10.32
-12.69
-15.12
-17.38
-19.05
-19.67
-18.78
-16.18
-11.92
-6.37
-0.18
5.92
11.22
15.21
17.73
18.84
18.85
18.09
16.91
15.54
14.19
12.95
11.86
10.93
10.17
9.56
9.06
8.59
7.98
7.03
5.55
3.42
0.71
-2.37
-5.48
-8.31
-10.7
-12.66
-14.34
-15.94
-17.72
-19.8
-22.29
-25.17
-28.24
-31.12
-33.18
-33.76
-32.27
-28.54
-22.85
-15.88
-8.53
-1.63
4.24
8.79
11.9
13.62
14.04
13.37
11.92
10.1
8.32
6.88
5.94
5.46
5.36
5.52
5.86
6.28
6.62
6.68
6.32
5.47
4.23
2.83
1.5
0.33
-0.75
-1.97
-3.64
-5.93
-8.83
-12.16
-15.6
-18.82
-21.51
-23.25
-23.58
-22.07
-18.48
-12.95
-6.1
1.17
7.86
13.21
16.79
18.57
18.75
17.67
15.72
13.34
10.91
8.81
7.2
6.12
5.47
5.12
4.99
5.02
5.13
5.13
4.74
3.71
1.91
-0.58
-3.52
-6.56
-9.46
-12.1
-14.58
-17.05
-19.76
-22.89
-26.45
-30.21
-33.65
-36
-36.49
-34.51
-29.91
-23.03
-14.66
-5.87
2.32
9.11
14.04
17.01
18.22
18.05
16.94
15.31
13.49
11.79
10.5
9.82
9.84
10.48
11.47
12.4
12.95
12.93
12.32
11.22
9.71
7.88
5.77
3.44
1.03
-1.36
-3.74
-6.23
-9.09
-12.6
-16.86
-21.7
-26.67
-31.05
-34.02
-34.84
-33.07
-28.66
-22.06
-13.98
-5.39
2.8
9.89
15.44
19.31
21.61
22.62
22.64
22.02
21
19.86
18.76
17.81
17.01
16.29
15.53
14.62
13.6
12.53
11.52
10.62
9.8
8.9
7.76
6.23
4.31
2.08
-0.32
-2.74
-5.05
-7.26
-9.5
-12.06
-15.33
-19.56
-24.62
-29.93
-34.53
-37.3
-37.36
-34.37
-28.56
-20.69
-11.83
-3.02
4.87
11.27
15.92
18.85
20.24
20.45
19.83
18.74
17.52
16.42
15.64
15.27
15.29
15.51
15.78
15.96
16.02
16.08
16.2
16.34
16.31
15.78
14.43
12.11
8.87
5.04
1.06
-2.66
-5.89
-8.69
-11.31
-14.2
-17.7
-21.9
-26.54
-30.88
-33.98
-34.85
-32.87
-27.98
-20.71
-12.06
-3.15
5
11.73
16.73
19.93
21.51
21.72
20.9
19.44
17.81
16.41
15.52
15.2
15.35
15.75
16.15
16.46
16.66
16.83
16.97
16.99
16.61
15.56
13.63
10.85
7.46
3.81
0.28
-2.9
-5.66
-8.11
-10.5
-13.12
-16.32
-20.29
-25.06
-30.25
-35.14
-38.62
-39.62
-37.48
-32.16
-24.37
-15.26
-6.1
2.21
9.19
14.81
19.19
22.43
24.57
25.6
25.63
24.86
23.63
22.2
20.75
19.38
18.1
16.92
15.79
14.66
13.5
12.31
11.11
9.94
8.76
7.41
5.69
3.38
0.43
-2.92
-6.31
-9.33
-11.74
-13.5
-14.89
-16.34
-18.29
-21.05
-24.72
-29.08
-33.54
-37.28
-39.31
-38.82
-35.37
-29.09
-20.72
-11.36
-2.19
5.9
12.48
17.54
21.29
23.93
25.6
26.35
26.28
25.61
24.73
24.02
23.71
23.9
24.52
25.41
26.42
27.44
28.36
29.09
29.55
29.66
29.28
28.22
26.21
23.04
18.68
13.36
7.49
1.52
-4.3
-9.98
-15.7
-21.58
-27.42
-32.63
-36.3
-37.51
-35.51
-30.12
-21.7
-11.23
-0.03
10.4
18.88
24.64
27.51
27.8
26.14
23.22
19.7
16.14
12.89
10.18
8.02
6.34
5.02
3.95
3.11
2.42
1.81
1.1
0.14
-1.23
-3
-5.1
-7.4
-9.81
-12.25
-14.64
-16.84
-18.69
-20.11
-21.2
-22.19
-23.5
-25.49
-28.36
-32.05
-36.2
-40.09
-42.84
-43.59
-41.69
-36.93
-29.64
-20.64
-11.01
-1.81
6.13
12.39
16.84
19.64
21.02
21.28
20.67
19.51
18.12
16.86
16.01
15.78
16.22
17.14
18.3
19.44
20.4
21.15
21.73
22.15
22.24
21.74
20.37
17.98
14.73
11
7.28
3.97
1.22
-1.1
-3.28
-5.66
-8.48
-11.87
-15.83
-20.18
-24.65
-28.7
-31.69
-32.87
-31.63
-27.74
-21.46
-13.56
-5.12
2.76
9.22
13.86
16.73
18.18
18.6
18.38
17.74
16.84
15.85
14.96
14.44
14.43
14.99
15.91
16.84
17.41
17.41
16.85
15.86
14.65
13.32
11.83
10.09
8.06
5.73
3.26
0.82
-1.48
-3.56
-5.44
-7.18
-8.93
-10.86
-13.22
-16.26
-20.04
-24.39
-28.8
-32.57
-34.94
-35.29
-33.31
-29.05
-22.84
-15.25
-6.96
1.23
8.59
14.5
18.63
20.99
21.89
21.85
21.37
20.77
20.17
19.52
18.72
17.76
16.7
15.73
14.98
14.47
14.08
13.6
12.83
11.64
10.04
8.11
5.99
3.76
1.52
-0.65
-2.69
-4.55
-6.29
-8.12
-10.31
-13.15
-16.74
-20.87
-24.9
-27.97
-29.15
-27.78
-23.74
-17.49
-9.91
-2.06
5.19
11.24
15.82
18.97
20.79
21.42
21.01
19.78
17.99
16
14.17
12.78
12
11.76
11.79
11.74
11.27
10.16
8.42
6.2
3.73
1.16
-1.47
-4.14
-6.85
-9.51
-12.03
-14.4
-16.73
-19.3
-22.38
-26.07
-30.11
-33.8
-36.18
-36.32
-33.59
-27.98
-20.02
-10.74
-1.35
7.04
13.69
18.22
20.74
21.56
21.13
19.88
18.14
16.17
14.21
12.45
11.04
10.02
9.4
9.13
9.09
9.19
9.31
9.28
8.9
7.97
6.4
4.21
1.52
-1.49
-4.73
-8.12
-11.66
-15.35
-19.15
-23.07
-27.02
-30.86
-34.21
-36.44
-36.78
-34.56
-29.52
-21.98
-12.86
-3.37
5.37
12.54
17.88
21.42
23.42
24.14
23.87
22.9
21.57
20.2
18.99
18.04
17.33
16.81
16.43
16.16
15.96
15.66
15.08
14.01
12.33
9.98
7.06
3.73
0.19
-3.37
-6.86
-10.27
-13.74
-17.48
-21.68
-26.34
-31.17
-35.51
-38.51
-39.3
-37.25
-32.31
-24.96
-16.16
-7.13
1.06
7.71
12.49
15.43
16.73
16.62
15.37
13.29
10.82
8.51
6.94
6.54
7.39
9.21
11.39
13.23
14.2
14.12
13.13
11.58
9.83
8.08
6.36
4.53
2.46
0.05
-2.74
-5.99
-9.8
-14.34
-19.75
-25.87
-32.21
-37.81
-41.52
-42.29
-39.6
-33.57
-25.03
-15.22
-5.38
3.43
10.53
15.67
18.84
20.32
20.45
19.68
18.32
16.64
14.78
12.85
11.07
9.69
9
9.07
9.77
10.7
11.33
11.25
10.26
8.37
5.78
2.69
-0.7
-4.28
-8.02
-11.86
-15.83
-19.96
-24.32
-28.91
-33.49
-37.48
-40.04
-40.33
-37.78
-32.37
-24.69
-15.73
-6.67
1.51
8.11
12.83
15.68
16.81
16.5
15.02
12.65
9.73
6.72
4.16
2.63
2.57
4.09
6.95
10.6
14.31
17.48
19.71
20.9
21.08
20.34
18.76
16.41
13.43
10
6.36
2.69
-0.99
-4.82
-9.01
-13.7
-18.7
-23.51
-27.3
-29.21
-28.51
-24.93
-18.82
-10.99
-2.59
5.27
11.73
16.39
19.21
20.46
20.49
19.66
18.32
16.8
15.33
14.09
13.1
12.33
11.74
11.31
11.04
10.87
10.65
10.17
9.24
7.79
5.86
3.61
1.19
-1.27
-3.68
-5.97
-8.17
-10.34
-12.71
-15.48
-18.71
-22.12
-25.13
-26.9
-26.68
-24.05
-19.05
-12.22
-4.37
3.59
10.85
16.85
21.29
24.03
25.11
24.65
22.93
20.29
17.27
14.44
12.3
11.11
10.84
11.18
11.7
12.06
12.05
11.66
10.97
10.02
8.83
7.36
5.56
3.4
0.89
-1.97
-5.2
-8.86
-12.96
-17.41
-21.98
-26.14
-29.22
-30.43
-29.16
-25.16
-18.73
-10.62
-1.91
6.31
13.14
18.06
20.92
21.88
21.32
19.7
17.44
14.97
12.57
10.47
8.84
7.79
7.31
7.25
7.3
7.06
6.26
4.84
2.97
0.95
-1
-2.8
-4.64
-6.78
-9.44
-12.71
-16.47
-20.36
-23.92
-26.5
-27.5
-26.39
-22.95
-17.34
-10.13
-2.16
5.62
12.41
17.66
21.11
22.71
22.6
20.98
18.21
14.73
11.13
7.95
5.58
4.13
3.41
3.13
2.97
2.75
2.43
1.98
1.39
0.57
-0.63
-2.31
-4.55
-7.43
-10.98
-15.12
-19.54
-23.62
-26.48
-27.31
-25.59
-21.42
-15.35
-8.29
-1.11
5.5
11.13
15.51
18.4
19.65
19.19
17.19
14.06
10.44
7.02
4.35
2.68
1.99
1.97
2.19
2.32
2.21
1.82
1.23
0.38
-0.88
-2.82
-5.61
-9.34
-13.86
-18.93
-24.2
-29.16
-33.16
-35.36
-35.02
-31.75
-25.75
-17.8
-9.03
-0.54
6.87
12.83
17.23
20.07
21.31
20.92
19.06
16.18
12.97
10.15
8.24
7.28
6.94
6.68
5.96
4.51
2.44
0.04
-2.33
-4.42
-6.22
-7.89
-9.7
-11.93
-14.81
-18.43
-22.62
-26.96
-30.72
-33.06
-33.13
-30.41
-24.86
-17.01
-7.88
1.27
9.33
15.53
19.59
21.66
22.1
21.31
19.6
17.25
14.55
11.87
9.63
8.12
7.43
7.39
7.62
7.69
7.28
6.22
4.54
2.37
-0.13
-2.84
-5.76
-8.96
-12.57
-16.65
-21.18
-25.94
-30.61
-34.67
-37.44
-38.15
-36.19
-31.26
-23.69
-14.33
-4.42
4.81
12.47
18.2
22.04
24.27
25.09
24.62
22.99
20.46
17.52
14.76
12.73
11.66
11.44
11.66
11.82
11.48
10.44
8.75
6.62
4.37
2.21
0.27
-1.58
-3.58
-6.08
-9.39
-13.65
-18.71
-24.09
-29.04
-32.68
-34.18
-33
-29.06
-22.73
-14.83
-6.32
1.88
9.08
14.86
19.01
21.46
22.24
21.47
19.48
16.74
13.87
11.4
9.8
9.24
9.66
10.75
12.03
13.04
13.38
12.86
11.47
9.4
6.85
4.06
1.16
-1.82
-4.98
-8.52
-12.67
-17.6
-23.17
-28.88
-33.83
-36.96
-37.34
-34.52
-28.69
-20.55
-11.16
-1.65
7.05
14.25
19.58
22.93
24.45
24.48
23.46
21.82
19.91
17.95
16.09
14.47
13.28
12.6
12.44
12.6
12.72
12.39
11.31
9.43
6.94
4.12
1.26
-1.51
-4.26
-7.18
-10.43
-14.12
-18.29
-22.95
-28.05
-33.4
-38.56
-42.75
-45.02
-44.48
-40.64
-33.68
-24.43
-14.15
-4.12
4.69
11.78
17.11
20.97
23.67
25.56
26.81
27.55
27.86
27.82
27.5
26.93
26.15
25.14
24.05
22.99
22.11
21.44
20.8
19.87
18.27
15.79
12.44
8.43
4.1
-0.21
-4.26
-7.91
-11.08
-13.83
-16.38
-19.09
-22.4
-26.62
-31.64
-36.83
-41.07
-43.12
-41.97
-37.29
-29.54
-19.81
-9.46
0.39
8.99
16.13
21.81
26.02
28.72
29.85
29.56
28.27
26.66
25.41
24.89
25.09
25.68
26.22
26.43
26.22
25.64
24.75
23.54
22.02
20.16
18.03
15.72
13.2
10.4
7.18
3.5
-0.5
-4.51
-8.21
-11.41
-14.15
-16.71
-19.44
-22.64
-26.47
-30.84
-35.38
-39.42
-42.1
-42.51
-39.99
-34.41
-26.25
-16.53
-6.5
2.77
10.59
16.72
21.24
24.32
26.09
26.63
26.04
24.62
22.84
21.25
20.27
20.06
20.48
21.19
21.87
22.32
22.49
22.43
22.14
21.53
20.47
18.83
16.54
13.7
10.46
7.02
3.57
0.25
-2.87
-5.76
-8.53
-11.33
-14.4
-17.94
-22.1
-26.86
-31.95
-36.81
-40.64
-42.56
-41.81
-38.03
-31.39
-22.59
-12.7
-2.85
6
13.25
18.66
22.28
24.37
25.25
25.29
24.79
24.02
23.2
22.53
22.16
22.22
22.74
23.63
24.68
25.58
26.04
25.88
25.08
23.74
22.06
20.14
18.03
15.66
12.98
9.96
6.63
3.09
-0.55
-4.17
-7.71
-11.15
-14.53
-17.95
-21.57
-25.55
-30
-34.84
-39.7
-43.92
-46.65
-47.12
-44.84
-39.74
-32.25
-23.09
-13.18
-3.42
5.38
12.59
17.89
21.24
22.9
23.31
22.93
22.15
21.24
20.37
19.72
19.47
19.75
20.54
21.63
22.66
23.27
23.25
22.59
21.48
20.13
18.74
17.28
15.69
13.83
11.65
9.21
6.65
4.15
1.83
-0.33
-2.49
-4.9
-7.86
-11.57
-16.12
-21.46
-27.36
-33.43
-39.03
-43.36
-45.51
-44.77
-40.83
-33.93
-24.92
-14.93
-5.13
3.63
10.9
16.58
20.74
23.47
24.81
24.87
23.91
22.38
20.8
19.6
19.02
19.01
19.31
19.59
19.62
19.31
18.69
17.9
17.01
16
14.73
13.02
10.74
7.85
4.46
0.86
-2.63
-5.65
-8.05
-9.8
-11.15
-12.44
-14.05
-16.26
-19.16
-22.61
-26.27
-29.69
-32.3
-33.51
-32.78
-29.78
-24.47
-17.2
-8.64
0.37
8.97
16.49
22.43
26.55
28.9
29.74
29.59
29.02
28.52
28.45
28.98
30.09
31.56
32.95
33.71
33.24
31.13
27.35
22.24
16.4
10.43
4.69
-0.7
-5.82
-10.73
-15.36
-19.55
-23.12
-26.12
-28.82
-31.65
-35.06
-39.24
-44.05
-48.92
-52.94
-55.05
-54.39
-50.56
-43.79
-34.85
-24.87
-14.99
-6.09
1.33
7.11
11.28
13.9
15.12
15.18
14.42
13.32
12.33
11.7
11.43
11.35
11.3
11.2
11.12
11.2
11.46
11.73
11.67
10.91
9.21
6.6
3.34
-0.16
-3.57
-6.69
-9.59
-12.48
-15.67
-19.41
-23.81
-28.8
-34.04
-38.88
-42.47
-43.85
-42.31
-37.57
-29.93
-20.23
-9.67
0.54
9.41
16.35
21.17
24
25.18
25.13
24.27
23
21.59
20.25
19.13
18.25
17.63
17.22
16.97
16.81
16.7
16.59
16.36
15.83
14.8
13.08
10.59
7.45
3.9
0.3
-3.02
-5.94
-8.61
-11.37
-14.63
-18.71
-23.64
-29.14
-34.54
-38.99
-41.55
-41.42
-38.19
-32
-23.55
-14.02
-4.74
3.19
9.19
13.24
15.71
17.12
17.83
18.03
17.75
17.05
16.08
15.07
14.24
13.67
13.32
13.04
12.72
12.33
11.95
11.64
11.31
10.79
9.81
8.16
5.81
2.9
-0.26
-3.35
-6.13
-8.55
-10.79
-13.23
-16.28
-20.22
-24.92
-29.8
-33.89
-36.09
-35.55
-31.88
-25.36
-16.82
-7.36
1.87
9.95
16.33
20.75
23.28
24.15
23.68
22.26
20.25
17.93
15.55
13.28
11.26
9.65
8.6
8.21
8.44
9.15
10.05
10.8
11.14
10.9
9.97
8.32
5.96
2.95
-0.58
-4.49
-8.66
-13.07
-17.75
-22.65
-27.46
-31.59
-34.23
-34.55
-32.04
-26.69
-19.11
-10.34
-1.69
5.62
10.74
13.4
13.88
12.85
11.04
8.99
6.99
5.07
3.22
1.5
0.03
-1.06
-1.74
-2.1
-2.17
-1.91
-1.13
0.42
2.77
5.65
8.56
10.9
12.25
12.45
11.59
9.78
7.04
3.25
-1.59
-7.19
-12.81
-17.31
-19.59
-18.95
-15.36
-9.54
-2.58
4.3
10.21
14.66
17.58
19.11
19.4
18.59
16.83
14.32
11.41
8.54
6.17
4.58
3.83
3.74
3.96
4.13
3.98
3.37
2.36
1.02
-0.54
-2.29
-4.21
-6.37
-8.76
-11.4
-14.32
-17.6
-21.38
-25.71
-30.46
-35.07
-38.67
-40.2
-38.81
-34.17
-26.69
-17.39
-7.55
1.66
9.51
15.71
20.27
23.27
24.77
24.83
23.62
21.51
19.03
16.7
14.92
13.88
13.5
13.62
13.97
14.3
14.39
14.04
13.15
11.7
9.8
7.6
5.26
2.88
0.53
-1.81
-4.25
-7.06
-10.57
-15.08
-20.63
-26.83
-32.8
-37.38
-39.51
-38.46
-34.12
-26.97
-17.92
-8.1
1.43
9.77
16.31
20.79
23.24
23.94
23.34
21.98
20.35
18.81
17.58
16.69
16.04
15.46
14.78
14.02
13.28
12.72
12.41
12.32
12.22
11.82
10.89
9.34
7.22
4.69
1.96
-0.8
-3.49
-6.12
-8.88
-12.03
-15.86
-20.42
-25.45
-30.3
-34.11
-35.95
-35.18
-31.63
-25.57
-17.81
-9.37
-1.3
5.57
10.76
14.18
16.03
16.65
16.42
15.64
14.57
13.43
12.48
11.93
11.89
12.29
12.91
13.5
13.8
13.75
13.37
12.75
11.97
11.01
9.83
8.37
6.64
4.7
2.68
0.67
-1.27
-3.18
-5.17
-7.4
-10
-13.06
-16.55
-20.26
-23.77
-26.54
-27.9
-27.32
-24.47
-19.47
-12.85
-5.46
1.82
8.23
13.37
17.16
19.7
21.11
21.47
20.82
19.3
17.23
15.12
13.46
12.59
12.55
13.09
13.79
14.28
14.31
13.87
13.02
11.94
10.76
9.53
8.2
6.66
4.79
2.57
0.03
-2.67
-5.39
-7.99
-10.51
-13.08
-15.88
-19.07
-22.64
-26.35
-29.72
-32.13
-32.9
-31.51
-27.75
-21.84
-14.36
-6.22
1.65
8.48
13.78
17.43
19.59
20.59
20.77
20.41
19.7
18.88
18.15
17.7
17.68
18.06
18.65
19.17
19.33
18.96
18.05
16.7
15.07
13.33
11.58
9.86
8.16
6.45
4.72
3
1.32
-0.33
-1.98
-3.78
-5.89
-8.41
-11.41
-14.87
-18.66
-22.58
-26.27
-29.23
-30.94
-30.91
-28.92
-25.17
-20.21
-14.85
-9.88
-5.76
-2.62
-0.26
1.61
3.13
4.3
4.98
5.08
4.72
4.18
3.83
3.94
4.54
5.41
6.31
7.03
7.58
8.08
8.63
9.26
9.76
9.89
9.4
8.27
6.62
4.75
2.9
1.22
-0.28
-1.69
-3.17
-4.94
-7.29
-10.49
-14.59
-19.31
-23.9
-27.37
-28.79
-27.58
-23.71
-17.66
-10.26
-2.4
5.09
11.62
16.81
20.52
22.79
23.75
23.61
22.59
20.95
18.98
17.02
15.38
14.21
13.53
13.14
12.77
12.19
11.35
10.32
9.25
8.22
7.21
6.06
4.62
2.85
0.8
-1.32
-3.32
-5.15
-6.92
-8.86
-11.26
-14.31
-17.98
-22.04
-26.01
-29.26
-31.14
-31.09
-28.83
-24.4
-18.25
-11.08
-3.78
2.81
8.09
11.71
13.67
14.15
13.5
12.12
10.38
8.52
6.74
5.13
3.78
2.81
2.43
2.8
3.96
5.65
7.39
8.57
8.81
8
6.43
4.59
2.86
1.35
-0.09
-1.72
-3.79
-6.29
-9.14
-12.17
-15.24
-18.27
-21.04
-23.21
-24.25
-23.66
-21.12
-16.75
-11.09
-4.93
0.96
5.98
9.78
12.28
13.42
13.26
11.88
9.49
6.51
3.49
1
-0.54
-0.91
-0.19
1.34
3.21
4.95
6.08
6.3
5.47
3.72
1.36
-1.24
-3.76
-6.06
-8.18
-10.29
-12.66
-15.47
-18.81
-22.54
-26.3
-29.54
-31.54
-31.67
-29.5
-25.09
-18.92
-11.83
-4.78
1.42
6.33
9.86
12.19
13.6
14.32
14.46
14
12.89
11.15
8.98
6.71
4.72
3.31
2.52
2.21
2.07
1.72
0.95
-0.36
-2.17
-4.4
-6.94
-9.65
-12.43
-15.16
-17.83
-20.54
-23.42
-26.64
-30.12
-33.5
-36.13
-37.28
-36.28
-32.83
-27.1
-19.77
-11.78
-4.12
2.43
7.45
10.78
12.58
13.14
12.81
11.99
11.09
10.41
10.18
10.46
11.21
12.29
13.59
15
16.4
17.73
18.83
19.58
19.82
19.44
18.4
16.75
14.56
11.94
8.92
5.4
1.17
-4.01
-10.13
-16.81
-23.22
-28.21
-30.79
-30.38
-27.12
-21.65
-14.92
-7.84
-1.15
4.58
8.92
11.51
12.26
11.41
9.52
7.41
5.8
5.17
5.67
7.17
9.36
11.87
14.29
16.18
17.2
17.15
16.06
14.14
11.7
9.03
6.28
3.46
0.43
-3
-7.05
-11.83
-17.27
-22.94
-28.12
-31.85
-33.24
-31.79
-27.55
-21.2
-13.71
-6.11
0.86
6.77
11.42
14.71
16.47
16.63
15.34
13.1
10.71
8.96
8.35
8.79
9.76
10.53
10.58
9.77
8.38
6.84
5.42
4.18
2.87
1.19
-1.05
-3.88
-7.24
-11.06
-15.32
-19.96
-24.75
-29.13
-32.33
-33.47
-31.97
-27.75
-21.35
-13.72
-5.99
1.03
6.83
11.36
14.72
16.96
18.04
17.88
16.59
14.56
12.42
10.83
10.18
10.4
11.05
11.51
11.35
10.49
9.22
8.04
7.3
7.03
6.89
6.29
4.69
1.77
-2.48
-7.73
-13.44
-18.94
-23.56
-26.62
-27.59
-26.1
-22.18
-16.21
-8.93
-1.24
5.94
11.95
16.37
19.07
20.14
19.81
18.39
16.25
13.78
11.38
9.39
8.1
7.57
7.64
7.93
8.03
7.64
6.66
5.24
3.64
2.05
0.46
-1.32
-3.55
-6.42
-9.92
-13.87
-17.9
-21.57
-24.37
-25.81
-25.43
-23
-18.59
-12.62
-5.9
0.7
6.38
10.66
13.43
14.85
15.18
14.66
13.49
11.77
9.72
7.66
5.95
4.9
4.6
4.86
5.32
5.59
5.45
4.88
4.05
3.15
2.24
1.24
-0.05
-1.83
-4.22
-7.19
-10.64
-14.34
-18.03
-21.28
-23.56
-24.31
-23.05
-19.6
-14.19
-7.49
-0.4
6.19
11.63
15.65
18.25
19.68
20.09
19.66
18.43
16.49
14.04
11.43
9.1
7.4
6.52
6.41
6.73
7.1
7.18
6.8
6.05
5.17
4.32
3.54
2.69
1.57
0.02
-1.98
-4.4
-7.19
-10.31
-13.72
-17.18
-20.19
-22.02
-21.99
-19.64
-15.07
-8.84
-1.9
4.75
10.33
14.43
16.94
18.03
17.96
17.02
15.48
13.65
11.77
10.11
8.83
8.04
7.75
7.96
8.47
9.04
9.33
9
7.89
6.03
3.67
1.13
-1.31
-3.63
-5.97
-8.52
-11.42
-14.58
-17.84
-20.93
-23.56
-25.46
-26.34
-25.79
-23.49
-19.27
-13.27
-6.01
1.7
9
15.13
19.67
22.47
23.69
23.57
22.44
20.63
18.47
16.28
14.27
12.59
11.23
10.22
9.58
9.34
9.51
9.99
10.5
10.74
10.44
9.52
8.09
6.37
4.55
2.66
0.6
-1.77
-4.55
-7.75
-11.36
-15.21
-19.09
-22.64
-25.36
-26.68
-26.16
-23.58
-19.08
-13.17
-6.58
-0.06
5.8
10.64
14.35
16.95
18.54
19.14
18.8
17.62
15.85
13.83
11.95
10.43
9.36
8.6
8.01
7.52
7.15
7.02
7.11
7.31
7.35
6.98
6.05
4.54
2.57
0.31
-2.12
-4.65
-7.25
-9.95
-12.81
-15.89
-19.15
-22.37
-25.04
-26.56
-26.3
-23.88
-19.29
-13.02
-5.86
1.22
7.36
11.95
14.76
15.9
15.76
14.86
13.64
12.37
11.21
10.18
9.3
8.66
8.37
8.45
8.79
9.2
9.48
9.54
9.4
9.11
8.69
8.05
7.01
5.42
3.34
0.96
-1.4
-3.51
-5.26
-6.77
-8.29
-10.11
-12.45
-15.38
-18.75
-22.19
-25.15
-27.03
-27.32
-25.77
-22.42
-17.6
-11.85
-5.84
-0.21
4.5
7.95
10.07
11.01
11.08
10.6
9.88
9.14
8.53
8.2
8.18
8.46
8.93
9.38
9.61
9.53
9.16
8.56
7.77
6.75
5.4
3.61
1.39
-1.13
-3.71
-6.08
-7.98
-9.29
-10.02
-10.36
-10.61
-11.1
-12.1
-13.74
-15.9
-18.19
-20.06
-20.88
-20.2
-17.79
-13.81
-8.71
-3.13
2.28
6.96
10.55
12.92
14.11
14.32
13.81
12.86
11.68
10.45
9.25
8.16
7.2
6.42
5.89
5.6
5.48
5.42
5.22
4.71
3.79
2.46
0.83
-0.94
-2.71
-4.41
-5.97
-7.36
-8.59
-9.74
-11.03
-12.69
-14.93
-17.7
-20.62
-22.99
-24.09
-23.37
-20.67
-16.25
-10.68
-4.63
1.26
6.49
10.68
13.51
14.82
14.62
13.14
10.89
8.44
6.34
4.94
4.34
4.43
5.02
5.91
6.96
8.12
9.27
10.28
10.97
11.12
10.62
9.36
7.41
4.93
2.22
-0.43
-2.75
-4.66
-6.26
-7.84
-9.73
-12.18
-15.16
-18.37
-21.24
-23.12
-23.41
-21.79
-18.24
-13.14
-7.1
-0.95
4.57
8.91
11.82
13.4
13.88
13.59
12.8
11.73
10.54
9.36
8.28
7.35
6.59
6.01
5.63
5.41
5.31
5.2
4.97
4.52
3.83
2.94
1.95
0.94
-0.08
-1.18
-2.38
-3.66
-4.97
-6.25
-7.51
-8.92
-10.65
-12.8
-15.25
-17.57
-19.11
-19.22
-17.47
-13.84
-8.84
-3.2
2.24
6.87
10.38
12.72
14.02
14.43
14.1
13.13
11.7
10.06
8.45
7.08
6.05
5.34
4.89
4.7
4.74
5
5.37
5.67
5.62
5.04
3.88
2.28
0.52
-1.13
-2.41
-3.23
-3.6
-3.7
-3.83
-4.31
-5.44
-7.31
-9.79
-12.44
-14.73
-16.06
-15.96
-14.25
-11.01
-6.67
-1.8
2.89
6.86
9.66
11.16
11.43
10.72
9.35
7.65
5.92
4.44
3.48
3.22
3.71
4.82
6.25
7.57
8.39
8.55
8.08
7.19
6.11
4.95
3.67
2.12
0.24
-1.92
-4.07
-5.98
-7.46
-8.57
-9.54
-10.65
-12.14
-14.07
-16.37
-18.78
-20.96
-22.53
-23.01
-22.01
-19.36
-15.19
-9.98
-4.45
0.65
4.76
7.66
9.43
10.29
10.4
9.92
8.96
7.78
6.7
6.09
6.13
6.73
7.58
8.28
8.57
8.45
8.07
7.71
7.57
7.68
7.88
7.95
7.66
6.84
5.51
3.79
1.9
0.06
-1.64
-3.21
-4.73
-6.36
-8.23
-10.43
-13
-15.89
-18.93
-21.74
-23.86
-24.73
-23.93
-21.28
-16.95
-11.47
-5.54
0.09
4.87
8.47
10.83
12.1
12.53
12.37
11.91
11.37
10.93
10.74
10.83
11.16
11.6
11.98
12.21
12.25
12.13
11.95
11.7
11.34
10.68
9.5
7.7
5.32
2.58
-0.2
-2.71
-4.72
-6.14
-7
-7.44
-7.66
-7.9
-8.4
-9.37
-10.89
-12.95
-15.4
-18.02
-20.54
-22.63
-23.9
-23.92
-22.36
-19.09
-14.35
-8.66
-2.66
2.93
7.62
11.1
13.3
14.34
14.44
13.89
12.99
11.96
10.96
10.06
9.36
8.91
8.79
9.05
9.65
10.4
11.07
11.44
11.4
10.95
10.14
8.99
7.45
5.49
3.18
0.78
-1.39
-3.05
-4.14
-4.83
-5.48
-6.39
-7.74
-9.55
-11.74
-14.2
-16.81
-19.3
-21.27
-22.17
-21.52
-19.08
-15.03
-9.91
-4.5
0.47
4.51
7.48
9.52
10.87
11.75
12.24
12.35
12.12
11.63
11.08
10.68
10.58
10.83
11.32
11.84
12.15
12.08
11.54
10.58
9.3
7.84
6.34
4.83
3.29
1.66
-0.12
-2.03
-4.04
-6.07
-8.02
-9.82
-11.51
-13.22
-15.19
-17.74
-21.1
-25.3
-30.03
-34.64
-38.27
-40.07
-39.55
-36.74
-32.28
-27.22
-22.68
-19.47
-17.92
-17.79
-18.55
-19.77
-21.31
-23.49
-26.86
-31.92
-38.83
-47.2
-56.19
-64.81
-72.23
-78.29
-83.53
-89.03
-96
-105.26
-116.81
-130.02
-143.83
-157.46
-170.74
-184.08
-198.38
-214.62
-233.79
-256.6
-283.08
-312.02
-340.59
-364.58
-379.44
-381.94
-371.38
-349.99
-321.95
-291.83
-262.95
-236.78
-213.39
-192.23
-173.08
-156.02
-141.21
-128.37
-116.7
-105.16
-93.03
-80.25
-67.35
-55.24
-44.65
-35.79
-28.34
-21.58
-14.8
-7.56
0.08
7.72
14.85
21.15
26.61
31.51
36.23
41.04
45.98
50.91
55.66
60.24
64.85
69.83
75.55
82.1
89.26
96.62
103.74
110.54
117.33
124.78
133.6
144.23
156.52
169.93
183.59
196.82
209.4
221.6
234.18
248.15
264.69
284.8
308.86
335.95
363.5
387.42
403.11
406.98
397.84
377.44
349.78
319.64
290.87
265.41
243.39
223.98
206.36
190.2
175.57
162.47
150.53
138.99
127.11
114.55
101.56
88.91
77.52
67.99
60.36
54.05
48.22
42.02
35
27.25
19.33
11.99
5.9
1.37
-1.63
-3.38
-4.16
-4.06
-3.06
-1.14
1.55
4.6
7.4
9.32
10.01
9.42
7.85
5.77
3.62
1.76
0.4
-0.36
-0.46
0.06
1.02
2.1
2.98
3.39
3.3
2.89
2.48
2.29
2.35
2.51
2.45
1.97
0.99
-0.35
-1.89
-3.52
-5.29
-7.3
-9.63
-12.24
-14.94
-17.53
-19.78
-21.57
-22.76
-23.16
-22.53
-20.58
-17.19
-12.54
-7.16
-1.82
2.72
5.93
7.7
8.26
8.02
7.36
6.56
5.69
4.8
3.97
3.33
3.03
3.12
3.5
3.99
4.36
4.49
4.34
3.95
3.38
2.65
1.77
0.72
-0.52
-1.96
-3.59
-5.38
-7.25
-9.1
-10.81
-12.24
-13.34
-14.16
-14.9
-15.86
-17.28
-19.15
-21.16
-22.74
-23.24
-22.14
-19.28
-14.88
-9.56
-4.05
0.88
4.73
7.21
8.34
8.31
7.44
6.09
4.57
3.13
1.91
1.05
0.53
0.31
0.3
0.39
0.53
0.72
1.02
1.45
1.9
2.18
2.07
1.38
0.11
-1.58
-3.47
-5.34
-7.11
-8.79
-10.42
-12.05
-13.7
-15.41
-17.21
-19.07
-20.82
-22.18
-22.8
-22.32
-20.51
-17.36
-13.08
-8.11
-3.06
1.4
4.7
6.56
7.01
6.49
5.52
4.6
3.96
3.56
3.27
3.02
2.89
3.01
3.48
4.14
4.77
5.07
4.82
3.98
2.66
1
-0.83
-2.68
-4.41
-5.9
-7.04
-7.83
-8.35
-8.81
-9.43
-10.44
-11.98
-14.05
-16.46
-18.87
-20.81
-21.81
-21.45
-19.5
-16.02
-11.34
-6.05
-0.91
3.35
6.25
7.69
7.87
7.29
6.43
5.64
5.07
4.68
4.4
4.22
4.19
4.36
4.73
5.25
5.8
6.33
6.79
7.16
7.36
7.17
6.37
4.81
2.56
-0.08
-2.66
-4.85
-6.49
-7.82
-9.24
-11.19
-13.86
-17.13
-20.58
-23.61
-25.65
-26.26
-25.26
-22.69
-18.81
-14.03
-8.91
-3.99
0.23
3.42
5.49
6.54
6.77
6.41
5.65
4.66
3.59
2.62
1.92
1.6
1.64
1.92
2.32
2.7
3.08
3.45
3.76
3.81
3.32
2.04
-0.03
-2.59
-5.15
-7.23
-8.61
-9.33
-9.69
-10.07
-10.83
-12.17
-14.15
-16.67
-19.51
-22.25
-24.37
-25.33
-24.72
-22.47
-18.79
-14.15
-9.14
-4.3
0.01
3.57
6.28
8.12
9.04
9.14
8.58
7.67
6.78
6.16
5.9
5.92
6.04
6.15
6.22
6.28
6.36
6.44
6.42
6.16
5.59
4.74
3.67
2.45
1.18
-0.07
-1.24
-2.28
-3.25
-4.31
-5.64
-7.39
-9.65
-12.3
-15.12
-17.79
-19.91
-21.16
-21.28
-20.11
-17.57
-13.77
-8.92
-3.43
2.1
7.03
10.87
13.39
14.69
15.05
14.72
13.8
12.22
9.92
7.15
4.44
2.55
2.06
3.06
5.09
7.43
9.32
10.37
10.62
10.38
10
9.65
9.31
8.82
7.99
6.67
4.86
2.62
0.16
-2.31
-4.55
-6.37
-7.77
-8.9
-10.11
-11.79
-14.24
-17.59
-21.55
-25.54
-28.73
-30.29
-29.69
-26.86
-22.19
-16.41
-10.28
-4.38
0.99
5.69
9.7
12.95
15.36
16.9
17.61
17.61
17.11
16.3
15.35
14.43
13.61
12.95
12.46
12.06
11.71
11.34
10.88
10.3
9.57
8.67
7.54
6.19
4.63
2.95
1.26
-0.33
-1.76
-2.99
-4.05
-4.94
-5.71
-6.44
-7.22
-8.17
-9.49
-11.31
-13.73
-16.71
-20.02
-23.19
-25.6
-26.59
-25.66
-22.75
-18.27
-13.01
-7.85
-3.43
0.06
2.81
5.18
7.43
9.57
11.42
12.77
13.57
13.9
13.96
13.97
14.09
14.35
14.7
15.01
15.12
14.93
14.43
13.72
12.96
12.19
11.33
10.15
8.49
6.35
4.02
1.95
0.52
-0.14
-0.21
-0.03
0.05
-0.14
-0.7
-1.62
-2.94
-4.76
-7.19
-10.23
-13.69
-17.17
-20.07
-21.76
-21.72
-19.73
-15.97
-10.96
-5.46
-0.15
4.46
8.14
10.84
12.61
13.53
13.66
13.18
12.3
11.27
10.28
9.46
8.9
8.67
8.79
9.24
9.92
10.63
11.14
11.29
11.03
10.36
9.31
7.89
6.1
4.04
1.91
-0.04
-1.6
-2.75
-3.61
-4.4
-5.24
-6.19
-7.3
-8.62
-10.27
-12.37
-14.94
-17.82
-20.64
-22.95
-24.32
-24.39
-22.97
-20
-15.67
-10.39
-4.76
0.55
5.04
8.46
10.84
12.34
13.1
13.16
12.5
11.27
9.73
8.31
7.4
7.14
7.38
7.76
7.93
7.74
7.31
6.89
6.71
6.78
6.86
6.56
5.62
4.01
1.99
-0.05
-1.76
-2.97
-3.71
-4.16
-4.48
-4.84
-5.37
-6.19
-7.45
-9.26
-11.63
-14.43
-17.38
-20.09
-22.18
-23.24
-22.97
-21.22
-18.05
-13.79
-8.96
-4.14
0.22
3.83
6.62
8.58
9.74
10.11
9.72
8.73
7.48
6.37
5.83
6.05
6.94
8.15
9.2
9.72
9.58
8.92
8.07
7.28
6.69
6.14
5.34
4.08
2.31
0.2
-1.93
-3.8
-5.27
-6.38
-7.31
-8.22
-9.29
-10.59
-12.14
-13.88
-15.65
-17.17
-18.05
-17.92
-16.48
-13.66
-9.64
-4.91
-0.09
4.17
7.39
9.35
10.16
10.12
9.59
8.83
7.94
6.88
5.6
4.19
2.87
1.96
1.71
2.18
3.18
4.31
5.18
5.43
4.94
3.79
2.19
0.36
-1.52
-3.32
-4.92
-6.25
-7.27
-8.09
-8.91
-10.03
-11.62
-13.61
-15.61
-16.99
-17.08
-15.48
-12.26
-7.87
-3.06
1.46
5.23
8.06
9.99
11.1
11.45
11.08
10.08
8.67
7.13
5.73
4.58
3.63
2.71
1.73
0.68
-0.27
-1
-1.47
-1.78
-2.13
-2.63
-3.28
-3.98
-4.63
-5.22
-5.84
-6.62
-7.65
-8.96
-10.51
-12.31
-14.36
-16.5
-18.43
-19.6
-19.47
-17.71
-14.42
-10.15
-5.6
-1.45
1.99
4.7
6.85
8.6
9.94
10.71
10.81
10.24
9.18
7.9
6.68
5.74
5.21
5.14
5.48
6.13
6.89
7.51
7.77
7.54
6.84
5.78
4.56
3.33
2.12
0.93
-0.38
-1.92
-3.77
-6.01
-8.62
-11.5
-14.39
-16.89
-18.48
-18.69
-17.24
-14.25
-10.19
-5.79
-1.71
1.64
4.11
5.81
6.88
7.37
7.28
6.62
5.49
4.14
2.92
2.09
1.81
2
2.5
3.1
3.66
4.16
4.58
4.9
5.03
4.88
4.32
3.31
1.89
0.15
-1.79
-3.8
-5.76
-7.55
-9.12
-10.57
-12.12
-14.02
-16.39
-18.98
-21.3
-22.61
-22.33
-20.27
-16.7
-12.3
-7.85
-3.96
-0.95
1.08
2.14
2.32
1.79
0.93
0.31
0.59
2.24
5.26
9.15
13.05
16.08
17.65
17.73
16.7
15.21
13.8
12.72
11.92
11.1
9.95
8.31
6.19
3.76
1.28
-1
-2.94
-4.46
-5.58
-6.36
-6.91
-7.42
-8.15
-9.32
-11.1
-13.36
-15.65
-17.31
-17.61
-16.08
-12.68
-7.93
-2.61
2.44
6.62
9.68
11.64
12.65
12.86
12.46
11.67
10.82
10.17
9.89
9.93
10.11
10.2
10.05
9.7
9.26
8.87
8.59
8.36
8.05
7.52
6.63
5.32
3.55
1.4
-0.94
-3.27
-5.39
-7.18
-8.67
-10
-11.44
-13.2
-15.41
-17.93
-20.35
-22.06
-22.39
-20.84
-17.35
-12.31
-6.51
-0.85
3.93
7.46
9.72
10.96
11.44
11.38
10.95
10.3
9.63
9.19
9.12
9.42
9.92
10.35
10.51
10.37
10.02
9.61
9.22
8.84
8.35
7.64
6.69
5.49
4.05
2.34
0.32
-1.9
-4.14
-6.18
-7.84
-9.21
-10.53
-12.07
-14.01
-16.29
-18.64
-20.75
-22.25
-22.88
-22.44
-20.81
-17.96
-14.06
-9.47
-4.69
-0.27
3.43
6.31
8.52
10.34
11.93
13.29
14.22
14.56
14.28
13.6
12.89
12.54
12.74
13.39
14.12
14.51
14.27
13.33
11.9
10.27
8.72
7.33
6.04
4.74
3.37
1.99
0.66
-0.57
-1.76
-3
-4.32
-5.63
-6.82
-7.85
-8.87
-10.21
-12.15
-14.69
-17.49
-19.92
-21.28
-21.15
-19.45
-16.45
-12.65
-8.56
-4.6
-1.06
1.97
4.49
6.58
8.26
9.53
10.31
10.51
10.17
9.41
8.48
7.61
7.01
6.8
7.03
7.64
8.51
9.44
10.2
10.5
10.18
9.16
7.52
5.49
3.32
1.3
-0.37
-1.6
-2.33
-2.69
-2.9
-3.27
-4.13
-5.67
-7.9
-10.63
-13.51
-16.04
-17.78
-18.36
-17.58
-15.45
-12.2
-8.22
-4
0
3.41
6.07
8
9.37
10.33
10.93
11.1
10.76
9.91
8.75
7.64
6.99
7.01
7.59
8.38
8.94
9.01
8.61
7.92
7.18
6.48
5.73
4.81
3.64
2.26
0.84
-0.48
-1.64
-2.69
-3.79
-5.09
-6.59
-8.21
-9.79
-11.19
-12.43
-13.68
-15.13
-16.82
-18.49
-19.56
-19.38
-17.5
-13.94
-9.2
-4.05
0.76
4.7
7.58
9.5
10.69
11.39
11.84
12.2
12.57
12.95
13.22
13.19
12.69
11.68
10.21
8.52
6.91
5.71
5.16
5.31
6.04
7.01
7.84
8.22
7.97
7.06
5.6
3.76
1.71
-0.29
-1.99
-3.18
-3.79
-3.98
-4.15
-4.84
-6.42
-9.06
-12.5
-16.21
-19.5
-21.69
-22.31
-21.19
-18.49
-14.61
-10.18
-5.77
-1.81
1.49
4.15
6.25
7.88
9.06
9.73
9.87
9.52
8.87
8.2
7.74
7.62
7.8
8.05
8.15
7.91
7.37
6.7
6.11
5.73
5.5
5.23
4.64
3.58
2.05
0.22
-1.62
-3.19
-4.27
-4.86
-5.13
-5.45
-6.18
-7.57
-9.59
-11.99
-14.36
-16.31
-17.57
-17.95
-17.33
-15.62
-12.82
-9.12
-4.87
-0.65
3.01
5.78
7.6
8.63
9.1
9.17
8.88
8.26
7.36
6.41
5.67
5.33
5.4
5.7
5.92
5.85
5.41
4.78
4.21
3.86
3.69
3.43
2.74
1.43
-0.44
-2.57
-4.54
-6.05
-7
-7.51
-7.82
-8.14
-8.65
-9.43
-10.52
-11.87
-13.34
-14.7
-15.57
-15.56
-14.31
-11.78
-8.16
-3.97
0.12
3.57
6.06
7.57
8.3
8.49
8.32
7.84
7.1
6.18
5.23
4.39
3.71
3.12
2.54
1.97
1.48
1.26
1.4
1.89
2.56
3.17
3.51
3.45
2.95
2.03
0.79
-0.58
-1.85
-2.84
-3.49
-3.92
-4.4
-5.21
-6.47
-8.14
-10.04
-11.94
-13.56
-14.63
-14.88
-14.02
-11.91
-8.63
-4.58
-0.45
3.04
5.38
6.43
6.49
6.09
5.71
5.65
5.86
6.1
6.1
5.75
5.12
4.44
3.91
3.56
3.3
2.85
2.03
0.71
-1.04
-3.02
-5.01
-6.77
-8.16
-9.11
-9.6
-9.66
-9.43
-9.11
-9
-9.38
-10.35
-11.8
-13.34
-14.43
-14.53
-13.28
-10.67
-6.95
-2.66
1.6
5.3
8.08
9.76
10.34
10
8.97
7.6
6.21
5.1
4.45
4.3
4.52
4.86
5.11
5.18
5.09
4.89
4.6
4.16
3.49
2.49
1.16
-0.39
-2.05
-3.74
-5.37
-6.87
-8.11
-8.97
-9.43
-9.65
-9.97
-10.71
-11.94
-13.33
-14.23
-13.97
-12.16
-8.92
-4.75
-0.38
3.53
6.59
8.65
9.77
10.07
9.68
8.8
7.69
6.63
5.9
5.64
5.76
6.05
6.23
6.09
5.55
4.7
3.69
2.65
1.61
0.54
-0.63
-1.87
-3.06
-4.07
-4.85
-5.46
-6.06
-6.82
-7.89
-9.26
-10.9
-12.66
-14.3
-15.49
-15.84
-15.05
-12.97
-9.76
-5.83
-1.83
1.65
4.11
5.35
5.44
4.71
3.61
2.55
1.74
1.18
0.73
0.27
-0.15
-0.31
0.05
1.07
2.62
4.27
5.55
6.06
5.69
4.57
3
1.34
-0.12
-1.28
-2.2
-3.02
-3.9
-4.87
-5.88
-6.87
-7.89
-9.15
-10.82
-12.95
-15.23
-17.02
-17.55
-16.29
-13.2
-8.83
-4.11
0.05
3.01
4.63
5.21
5.15
4.8
4.32
3.71
2.97
2.24
1.72
1.65
2.13
3.08
4.27
5.44
6.38
6.93
7.02
6.65
5.93
5.07
4.23
3.52
2.86
1.99
0.63
-1.33
-3.77
-6.37
-8.84
-11.11
-13.32
-15.68
-18.15
-20.33
-21.54
-21.1
-18.75
-14.8
-10.02
-5.32
-1.39
1.53
3.61
5.16
6.39
7.27
7.63
7.32
6.4
5.14
3.93
3.08
2.7
2.72
3.02
3.46
3.97
4.48
4.85
4.89
4.38
3.25
1.62
-0.23
-1.97
-3.37
-4.43
-5.33
-6.33
-7.67
-9.49
-11.72
-14.09
-16.14
-17.27
-17.01
-15.13
-11.82
-7.54
-2.92
1.47
5.26
8.23
10.33
11.48
11.68
11
9.67
8.03
6.41
5.09
4.2
3.67
3.34
3.02
2.56
1.87
0.95
-0.18
-1.45
-2.82
-4.23
-5.61
-6.86
-7.89
-8.66
-9.26
-9.86
-10.67
-11.86
-13.46
-15.37
-17.34
-18.94
-19.7
-19.09
-16.85
-13.06
-8.21
-3.1
1.53
5.13
7.61
9.18
10.18
10.86
11.26
11.27
10.8
9.85
8.56
7.14
5.73
4.4
3.19
2.12
1.27
0.69
0.39
0.28
0.22
0.09
-0.24
-0.81
-1.6
-2.57
-3.68
-4.91
-6.26
-7.84
-9.78
-12.2
-15.11
-18.21
-20.95
-22.64
-22.68
-20.84
-17.32
-12.64
-7.49
-2.47
1.99
5.64
8.36
10.18
11.12
11.34
11.04
10.45
9.83
9.37
9.12
9.06
9.1
9.1
8.96
8.64
8.16
7.57
6.9
6.11
5.11
3.79
2.1
0.1
-2.03
-3.99
-5.53
-6.56
-7.2
-7.82
-8.88
-10.8
-13.71
-17.36
-21.16
-24.29
-25.97
-25.68
-23.34
-19.32
-14.33
-9.22
-4.66
-1.02
1.71
3.77
5.46
6.92
8.2
9.19
9.8
10.04
10.03
9.95
9.93
10
10.01
9.76
9.22
8.48
7.77
7.33
7.27
7.41
7.44
7
5.87
4.09
1.95
-0.17
-1.91
-3.12
-3.86
-4.35
-4.9
-5.84
-7.4
-9.73
-12.76
-16.17
-19.43
-21.86
-22.82
-21.97
-19.34
-15.34
-10.57
-5.67
-1.07
2.98
6.4
9.17
11.22
12.53
13.14
13.15
12.77
12.25
11.78
11.46
11.34
11.36
11.44
11.53
11.59
11.57
11.41
11.01
10.29
9.2
7.79
6.13
4.3
2.38
0.37
-1.67
-3.66
-5.51
-7.13
-8.54
-9.9
-11.45
-13.41
-15.85
-18.62
-21.35
-23.51
-24.55
-24.05
-21.86
-18.09
-13.17
-7.63
-2.11
2.86
6.95
10.02
12.13
13.44
14.18
14.53
14.68
14.8
15
15.39
15.96
16.63
17.22
17.59
17.62
17.36
16.93
16.43
15.89
15.2
14.2
12.77
10.97
8.95
6.87
4.9
3.09
1.41
-0.16
-1.65
-3.11
-4.58
-6.18
-8.03
-10.19
-12.74
-15.65
-18.85
-22.16
-25.19
-27.36
-27.99
-26.6
-23.11
-17.98
-12.09
-6.36
-1.42
2.54
5.72
8.44
10.85
12.92
14.45
15.35
15.74
15.89
16.09
16.44
16.91
17.27
17.33
17.05
16.54
16.01
15.66
15.57
15.67
15.73
15.51
14.82
13.62
12
10.18
8.37
6.7
5.2
3.79
2.35
0.77
-0.97
-2.83
-4.69
-6.48
-8.22
-10.1
-12.39
-15.33
-18.88
-22.67
-26
-28.05
-28.18
-26.17
-22.25
-17.06
-11.33
-5.75
-0.76
3.4
6.67
9.09
10.78
11.91
12.68
13.3
13.9
14.51
15.11
15.65
16.13
16.59
17.07
17.58
18.03
18.29
18.24
17.88
17.28
16.55
15.77
14.9
13.85
12.53
10.92
9.07
7.09
5.08
3.15
1.39
-0.16
-1.44
-2.46
-3.36
-4.41
-5.9
-8.06
-10.93
-14.34
-17.89
-21.08
-23.38
-24.35
-23.78
-21.64
-18.12
-13.61
-8.58
-3.55
1.08
5.04
8.23
10.67
12.48
13.79
14.71
15.32
15.73
16.06
16.38
16.68
16.89
16.9
16.66
16.18
15.57
14.91
14.21
13.41
12.46
11.37
10.24
9.19
8.27
7.43
6.51
5.37
4
2.52
1.14
-0.01
-0.96
-1.92
-3.14
-4.83
-7.09
-9.84
-12.93
-16.15
-19.24
-21.83
-23.46
-23.69
-22.23
-19.13
-14.78
-9.82
-4.91
-0.52
3.13
6.04
8.27
9.87
10.86
11.25
11.14
10.73
10.25
9.94
9.98
10.44
11.25
12.29
13.4
14.39
15.11
15.44
15.31
14.64
13.45
11.86
10.09
8.42
7.03
5.96
5.02
3.96
2.58
0.88
-0.94
-2.58
-3.82
-4.69
-5.39
-6.26
-7.64
-9.72
-12.44
-15.52
-18.47
-20.7
-21.68
-21.09
-18.88
-15.31
-10.89
-6.2
-1.77
2.05
5.13
7.48
9.14
10.16
10.58
10.46
9.91
9.13
8.27
7.47
6.76
6.1
5.46
4.91
4.64
4.82
5.57
6.8
8.18
9.33
9.92
9.8
9.05
7.88
6.47
4.98
3.44
1.88
0.32
-1.2
-2.67
-4.09
-5.5
-6.99
-8.61
-10.39
-12.36
-14.42
-16.38
-17.86
-18.4
-17.63
-15.43
-12
-7.88
-3.65
0.21
3.45
6.03
7.94
9.1
9.4
8.76
7.34
5.5
3.74
2.44
1.84
1.89
2.45
3.33
4.4
5.59
6.77
7.81
8.51
8.74
8.43
7.66
6.64
5.62
4.81
4.31
4.06
3.87
3.57
2.98
2.05
0.83
-0.58
-2.08
-3.56
-4.89
-5.82
-6.07
-5.39
-3.71
-1.18
1.83
4.95
7.92
10.58
12.86
14.62
15.67
15.83
15.11
13.79
12.38
11.39
11.16
11.65
12.58
13.52
14.15
14.41
14.37
14.25
14.19
14.24
14.24
13.89
12.75
10.41
6.52
1
-5.97
-13.98
-22.5
-31.03
-39.32
-47.35
-55.34
-63.59
-72.17
-80.81
-88.82
-95.27
-99.37
-100.78
-99.82
-97.36
-94.41
-91.74
-89.46
-87.11
-83.89
-79.13
-72.55
-64.32
-54.91
-44.97
-35.14
-26
-18.16
-12.01
-7.62
-4.41
-1.26
3.2
9.95
19.11
29.78
40.36
49.17
55.03
57.59
57.24
54.72
50.95
46.64
42.4
38.63
35.58
33.24
31.34
29.41
27.01
23.95
20.36
16.73
13.76
12.03
11.88
13.21
15.54
18.16
20.35
21.58
21.69
20.81
19.29
17.57
15.98
14.7
13.76
13.1
12.61
12.17
11.67
10.99
10.05
8.81
7.29
5.56
3.66
1.55
-0.83
-3.51
-6.32
-8.94
-10.91
-11.85
-11.54
-10.02
-7.52
-4.37
-0.91
2.54
5.71
8.27
9.99
10.71
10.47
9.49
8.11
6.69
5.5
4.62
4.01
3.55
3.13
2.68
2.2
1.68
1.06
0.28
-0.74
-2.02
-3.51
-5.15
-6.89
-8.73
-10.64
-12.53
-14.17
-15.21
-15.26
-14
-11.39
-7.65
-3.24
1.27
5.39
8.81
11.38
13.1
14.01
14.15
13.6
12.53
11.15
9.72
8.48
7.54
6.96
6.62
6.35
5.93
5.14
3.91
2.29
0.45
-1.39
-3.07
-4.63
-6.21
-8.11
-10.56
-13.68
-17.35
-21.3
-25.12
-28.32
-30.44
-31.08
-29.99
-27.2
-23
-17.95
-12.75
-8.08
-4.37
-1.76
-0.1
0.9
1.5
1.89
2.05
2.01
1.78
1.43
1.09
0.83
0.76
0.97
1.62
2.75
4.31
6.06
7.67
8.88
9.67
10.3
11.21
12.88
15.61
19.44
24.13
29.15
33.76
37.2
38.92
38.87
37.72
36.65
36.96
39.58
44.7
51.82
60.13
69.07
78.48
88.52
99.26
110.25
120.4
128.25
132.43
132.09
127.16
118.26
106.51
93.21
79.58
66.51
54.55
43.89
34.74
27.42
22.55
20.95
23.23
29.39
38.5
48.8
58.08
64.35
66.25
63.43
56.54
46.96
36.46
26.77
19.22
14.55
12.79
13.31
15.13
17.18
18.58
18.79
17.62
15.13
11.66
7.7
3.86
0.72
-1.35
-2.5
-3.41
-5.17
-9.02
-15.81
-25.81
-38.52
-52.92
-67.74
-81.8
-94.16
-104.18
-111.55
-116.14
-118.1
-117.73
-115.52
-112
-107.67
-102.81
-97.37
-90.9
-82.69
-72
-58.45
-42.37
-24.9
-7.89
6.64
17.06
22.45
22.84
19.02
12.35
4.55
-2.62
-7.64
-9.56
-8.38
-5.12
-1.52
0.48
-0.39
-4.35
-10.57
-17.7
-24.61
-30.82
-36.59
-42.3
-48.01
-53.19
-56.96
-58.7
-58.49
-57.11
-55.64
-54.83
-54.64
-54.32
-52.73
-48.99
-42.71
-34.08
-23.71
-12.32
-0.65
10.66
21.03
29.99
37.22
42.59
46.12
48.01
48.55
48.14
47.17
45.92
44.51
42.91
41.07
39.01
36.87
34.75
32.62
30.22
27.17
23.25
18.57
13.6
8.96
5.26
2.82
1.76
2.07
3.79
6.98
11.56
17.12
22.89
27.86
31.03
31.78
30.01
26.12
20.83
14.85
8.66
2.4
-4
-10.56
-17
-22.69
-26.85
-28.96
-28.97
-27.4
-25.11
-22.92
-21.4
-20.76
-20.97
-22.01
-23.88
-26.6
-30.03
-33.72
-37.05
-39.33
-40.1
-39.27
-37.18
-34.4
-31.57
-29.23
-27.64
-26.76
-26.29
-25.85
-25.06
-23.85
-22.49
-21.65
-22.18
-24.82
-29.83
-36.79
-44.62
-51.91
-57.44
-60.51
-61.07
-59.44
-56.06
-51.17
-45.07
-38.29
-31.84
-27.08
-25.25
-26.97
-31.9
-38.89
-46.5
-53.48
-59.02
-62.65
-63.96
-62.43
-57.55
-49.14
-37.66
-24.25
-10.45
2.33
13.23
22.2
29.92
37.47
45.81
55.47
66.33
77.74
88.74
98.26
105.31
109
108.6
103.72
94.53
81.88
67.26
52.43
38.85
27.36
18.06
10.53
4.26
-1.1
-5.56
-9.03
-11.39
-12.61
-12.62
-11.27
-8.38
-3.88
1.82
7.74
12.47
14.69
13.73
10.01
4.97
0.55
-1.47
-0.1
4.78
12.65
22.62
33.59
44.04
51.98
55.07
51.33
39.95
21.73
-1.08
-25.58
-49.17
-70.27
-88.21
-102.76
-113.5
-119.56
-119.89
-113.89
-101.92
-85.5
-66.87
-48.32
-31.5
-17.07
-4.82
5.89
15.46
23.81
30.48
35
37.41
38.44
39.31
41.18
44.67
49.52
54.82
59.48
62.79
64.69
65.72
66.68
68.25
70.77
74.19
78.1
81.74
83.9
83.11
78.07
68.28
54.51
38.86
24.04
12.56
5.8
3.72
5.2
8.68
12.75
16.52
19.52
21.49
22.31
21.99
20.77
19.15
17.8
17.35
18.14
20.18
23.07
26.1
28.48
29.67
29.66
29.04
28.81
29.92
32.78
36.9
41.01
43.46
42.73
37.94
29
16.45
1.24
-15.59
-33
-49.95
-65.48
-78.78
-89.38
-97.27
-102.95
-107.21
-110.89
-114.66
-118.79
-123.11
-127.11
-130.06
-131.28
-130.36
-127.24
-122.15
-115.48
-107.58
-98.68
-89
-78.91
-69.08
-60.35
-53.47
-48.72
-45.81
-44.05
-42.75
-41.61
-40.76
-40.52
-41.01
-41.89
-42.46
-42.05
-40.43
-38
-35.62
-34.2
-34.37
-36.33
-40.01
-45.31
-52.21
-60.67
-70.42
-80.72
-90.37
-98.02
-102.63
-103.85
-101.84
-96.85
-88.57
-75.96
-57.69
-33.19
-3.59
28.15
57.92
82.01
98.49
107.92
112.85
116.55
121.7
129.52
139.76
151.2
162.39
172.15
179.62
184.26
185.64
183.37
177.28
167.53
154.71
139.81
123.92
107.89
92.28
77.21
62.71
48.92
36.14
24.82
15.33
7.72
1.71
-3.23
-7.71
-12.31
-17.39
-23.12
-29.33
-35.57
-41
-44.63
-45.6
-43.54
-38.67
-31.79
-23.93
-15.93
-8.24
-0.8
6.62
14.1
21.34
27.62
32.19
34.53
34.65
33.04
30.51
27.87
25.72
24.28
23.24
21.8
18.64
12.32
1.67
-13.55
-32.34
-52.58
-71.55
-86.78
-96.72
-101.05
-100.42
-96.05
-89.27
-81.35
-73.32
-66.07
-60.29
-56.39
-54.37
-53.82
-53.91
-53.7
-52.33
-49.33
-44.73
-39.06
-32.98
-27.09
-21.61
-16.48
-11.4
-6.13
-0.6
4.99
10.28
14.87
18.43
20.78
21.95
22.17
21.8
21.2
20.58
19.93
19.08
17.86
16.26
14.41
12.58
11.03
9.85
9.09
8.72
8.78
9.27
10.07
10.94
11.56
11.73
11.53
11.38
11.87
13.48
16.25
19.79
23.36
26.17
27.68
27.68
26.44
24.44
22.29
20.48
19.13
18.02
16.57
14.23
10.68
6.18
1.31
-3.19
-6.85
-9.55
-11.53
-13.09
-14.36
-15.33
-15.88
-16.07
-16.08
-16.21
-16.71
-17.61
-18.77
-19.99
-21.13
-22.12
-22.92
-23.4
-23.23
-22.11
-19.8
-16.4
-12.32
-8.17
-4.48
-1.43
1.09
3.39
5.67
7.85
9.47
10.01
9.13
6.92
3.83
0.46
-2.74
-5.67
-8.43
-11.3
-14.36
-17.44
-20.2
-22.15
-23.02
-22.86
-22.08
-21.3
-21.06
-21.64
-22.98
-24.77
-26.61
-28.17
-29.28
-29.77
-29.49
-28.19
-25.64
-21.78
-16.79
-11.12
-5.29
0.3
5.63
11.03
16.99
23.93
31.9
40.51
49.02
56.55
62.31
65.81
66.96
65.96
63.27
59.4
54.94
50.35
46
42.09
38.62
35.4
32.05
28.04
22.7
15.4
5.72
-6.18
-19.34
-32.13
-42.56
-48.98
-50.59
-47.85
-42.32
-35.97
-30.51
-26.75
-24.49
-22.99
-21.4
-19.28
-16.65
-13.74
-10.62
-7.05
-2.64
2.86
9.18
15.49
20.58
23.39
23.45
20.98
16.76
11.66
6.36
1.09
-4.15
-9.31
-14.21
-18.3
-21.07
-22.16
-21.63
-19.85
-17.46
-15.03
-12.93
-11.27
-9.91
-8.72
-7.6
-6.49
-5.36
-4.19
-2.86
-1.31
0.47
2.38
4.22
5.74
6.71
7.03
6.74
6.1
5.4
4.95
4.9
5.19
5.59
5.8
5.67
5.24
4.78
4.54
4.62
4.86
4.97
4.75
4.18
3.51
3.04
3
3.33
3.74
3.81
3.22
1.96
0.26
-1.34
-2.34
-2.39
-1.48
0.1
1.93
3.53
4.62
5.07
4.99
4.57
4.06
3.64
3.36
3.13
2.8
2.2
1.36
0.43
-0.37
-0.85
-1.09
-1.24
-1.46
-1.82
-2.19
-2.42
-2.45
-2.4
-2.43
-2.69
-3.13
-3.55
-3.73
-3.55
-3.16
-2.83
-2.82
-3.26
-4.05
-4.95
-5.73
-6.19
-6.32
-6.17
-5.83
-5.38
-4.82
-4.15
-3.39
-2.55
-1.72
-0.89
-0.13
0.58
1.26
1.93
2.65
3.44
4.28
5.1
5.8
6.33
6.71
7.05
7.47
8.03
8.65
9.18
9.37
9.12
8.44
7.51
6.51
5.56
4.64
3.66
2.57
1.32
-0.04
-1.48
-3.01
-4.63
-6.31
-7.89
-9.1
-9.64
-9.35
-8.34
-6.97
-5.71
-4.93
-4.71
-4.89
-5.11
-5.08
-4.66
-3.92
-3.09
-2.35
-1.83
-1.47
-1.22
-0.97
-0.69
-0.39
-0.08
0.27
0.72
1.27
1.84
2.25
2.3
1.87
1.03
-0.01
-0.95
-1.53
-1.69
-1.45
-0.97
-0.46
-0.11
-0.08
-0.44
-1.17
-2.06
-2.84
-3.16
-2.91
-2.11
-1.02
0.1
1.08
1.94
2.78
3.71
4.69
5.52
5.99
6
5.6
5.02
4.52
4.29
4.38
4.65
4.89
4.91
4.59
3.95
3.07
2.13
1.29
0.61
0.07
-0.45
-1.06
-1.81
-2.66
-3.53
-4.27
-4.86
-5.39
-5.88
-6.37
-6.72
-6.68
-6.07
-4.91
-3.44
-2.04
-1.04
-0.55
-0.49
-0.6
-0.65
-0.5
-0.14
0.3
0.66
0.82
0.76
0.58
0.46
0.6
1.14
2.06
3.12
4.04
4.58
4.65
4.37
3.9
3.38
2.83
2.15
1.25
0.05
-1.42
-3.1
-4.92
-6.79
-8.59
-10.12
-11.14
-11.51
-11.3
-10.81
-10.5
-10.73
-11.66
-13.06
-14.5
-15.48
-15.67
-14.93
-13.36
-11.11
-8.35
-5.19
-1.73
1.89
5.49
8.84
11.67
13.67
14.44
13.44
10.16
4.33
-3.91
-13.74
-23.85
-32.7
-39.05
-42.2
-42.19
-39.68
-35.61
-30.94
-26.38
-22.36
-19.12
-16.79
-15.57
-15.55
-16.65
-18.29
-19.47
-18.9
-15.47
-8.8
0.62
11.5
22.34
32.02
40.18
47.18
53.68
60.14
66.52
72.39
77.11
80.27
81.84
82.07
81.28
79.56
76.66
72.03
65.2
55.92
44.36
31.05
16.63
1.66
-13.51
-28.71
-43.91
-58.97
-73.61
-87.27
-98.99
-107.51
-111.36
-109.25
-100.48
-85.21
-64.51
-40.18
-14.36
10.86
33.73
53.02
68.02
78.56
84.98
88.02
88.61
87.71
86.13
84.36
82.53
80.37
77.25
72.31
64.84
54.51
41.67
27.35
12.89
-0.47
-11.91
-21.27
-28.84
-35.19
-40.99
-46.94
-53.83
-62.58
-74.07
-88.97
-107.56
-129.62
-154.38
-180.65
-206.89
-231.43
-252.7
-269.52
-281.4
-288.46
-291.42
-291.12
-288.08
-282.19
-272.68
-258.47
-238.6
-212.78
-181.63
-146.74
-110.39
-75.21
-43.54
-16.94
4.11
20.08
31.81
39.96
44.41
44.38
38.89
27.39
10.2
-11.59
-36.51
-63.09
-89.95
-115.55
-138.07
-155.57
-166.53
-170.38
-167.62
-159.46
-147.26
-132.01
-114.47
-95.37
-75.65
-56.47
-38.59
-22.02
-5.77
11.72
31.89
55.51
82.4
111.55
141.58
171.13
199.13
225.15
249.29
272
293.64
313.9
331.5
344.44
350.72
349.29
340.72
326.99
310.79
294.27
278.39
262.93
247.27
231.31
215.94
202.78
193.32
188.25
187.1
188.75
192.02
195.9
199.44
201.19
199.04
190.45
173.5
147.96
115.74
80.64
46.98
18.28
-3.85
-19.72
-30.84
-38.83
-44.75
-48.96
-51.57
-53
-53.98
-55.28
-57.25
-59.54
-61.34
-61.99
-61.65
-61.25
-62.15
-65.33
-70.93
-78.17
-85.69
-91.99
-95.8
-96.22
-92.66
-84.95
-73.34
-58.61
-41.89
-24.42
-7.31
8.7
23.17
35.85
46.51
54.94
60.94
64.41
65.37
63.97
60.42
55.18
49
42.85
37.79
34.64
33.64
34.32
35.59
36.07
34.52
30.24
23.25
14.33
4.69
-4.32
-11.74
-17.27
-21.38
-25.07
-29.52
-35.56
-43.44
-52.45
-61.04
-66.85
-67.16
-59.63
-43.25
-19.02
9.91
39.03
63.83
81.26
90.52
92.81
90.3
84.99
78.08
70.06
61.37
52.98
46.41
43.35
45.04
51.99
63.85
79.78
98.57
118.55
137.36
151.88
158.61
154.61
138.64
112.03
78.79
44.52
14.83
-6.43
-18.33
-23.03
-24.93
-29.17
-39.92
-58.87
-84.51
-112.23
-135.47
-147.71
-144.62
-125.53
-93.76
-55.74
-19.04
9.52
25.46
27.53
17.57
0.04
-19.28
-35.01
-44.01
-46.47
-45.99
-48.08
-57.92
-78.24
-108.4
-144.77
-181.9
-214.13
-236.77
-247
-244.53
-231.75
-213.23
-194.15
-178.68
-168.56
-162.89
-158.92
-153.57
-144.73
-131.79
-115.87
-99.49
-86.55
-81.82
-89.98
-113.58
-151.33
-197.35
-242.48
-277.32
-295.34
-295.05
-279.62
-254.84
-226.21
-197.25
-168.92
-140.36
-110.44
-78.51
-44.55
-8.73
29.14
69.79
114.09
162.27
213.1
263.36
308.38
343.23
364.36
370.9
364.86
350.12
330.69
309.18
286.08
260.22
230
194.24
152.64
105.34
52.43
-6.18
-70.08
-137.44
-204.29
-264.84
-312.61
-342.25
-351.17
-340.14
-312.86
-274.67
-231.06
-186.52
-144.01
-105.08
-70.32
-39.64
-12.51
12.03
35.28
58.86
84.41
113.05
144.76
177.95
209.54
235.69
253.07
259.95
256.8
246.01
230.85
214.32
198.32
183.42
169.38
155.5
140.81
123.81
102.16
72.88
33.31
-17.51
-77.61
-141.99
-203.61
-255.46
-292.51
-313
-318.46
-312.68
-300.34
-285.85
-272.7
-263.24
-258.6
-258.53
-261.44
-264.6
-264.83
-259.32
-246.23
-224.81
-195.2
-158.07
-114.33
-65.28
-12.89
39.99
89.8
132.91
166.5
189.35
202.1
206.96
206.98
205.22
204.3
205.92
210.78
218.49
227.63
236.18
242.15
244.26
242.57
238.69
235.23
234.95
239.5
248.31
258.2
264.23
261.66
248.26
225.77
199.43
175.78
159.69
152.28
150.91
151.16
149.5
145.01
139.23
134.46
131.89
130.7
128.68
123.77
115.34
104.47
93.23
83.48
76.14
71.27
68.47
67.59
68.85
72.5
78.09
84.02
87.59
85.74
76.17
58.4
34.16
6.98
-18.85
-39.55
-52.81
-58.21
-56.97
-51.4
-44.17
-37.7
-33.89
-34.05
-38.95
-48.84
-63.39
-81.66
-102.16
-123.09
-142.74
-159.9
-174.05
-185.38
-194.47
-201.95
-208.08
-212.69
-215.33
-215.55
-213.29
-208.93
-203.31
-197.27
-191.36
-185.58
-179.46
-172.26
-163.17
-151.54
-136.74
-118.29
-95.9
-69.74
-40.68
-10.31
19.45
47
71.75
94.19
115.35
135.97
155.82
173.82
188.59
199.36
206.44
211.13
215.03
219.38
224.59
230.37
236.06
240.92
244.39
246.14
245.98
243.88
239.82
233.78
225.71
215.52
203.43
189.99
176.14
162.78
150.43
139
127.86
116.22
103.5
89.6
74.72
59.18
43.12
26.58
9.6
-7.66
-24.85
-41.55
-57.36
-72
-85.3
-97.14
-107.4
-116.02
-123.06
-128.67
-133.21
-137.11
-141.02
-145.75
-152.19
-161.05
-172.47
-185.84
-199.73
-212.31
-221.78
-226.97
-227.45
-223.4
-215.22
-203.17
-187.27
-167.53
-144.24
-118.16
-90.4
-62.12
-34.2
-7.15
18.82
43.46
66.28
86.5
103.08
115.11
121.94
123.43
119.91
112.23
101.52
88.97
75.58
61.96
48.43
34.99
21.52
7.8
-6.59
-22.18
-39.65
-59.47
-81.76
-105.96
-130.97
-155.43
-178.23
-198.84
-217.31
-234.13
-249.79
-264.6
-278.42
-290.68
-300.38
-306.08
-305.98
-298.16
-281.15
-254.5
-219.36
-178.49
-135.81
-95.35
-60.39
-32.69
-12.52
0.75
8
9.8
6.24
-2.67
-16.58
-34.36
-54.06
-73.08
-88.79
-99.08
-102.76
-99.89
-91.75
-80.53
-68.9
-59.35
-53.48
-51.37
-51.36
-50.25
-44.35
-30.44
-6.89
26.01
66.06
110.03
154.49
196.54
234.28
266.79
293.99
316.23
334.02
347.65
357.08
361.86
361.37
355.21
343.51
327.26
308.07
287.82
268.08
249.76
233.03
217.66
203.47
190.67
179.91
171.85
166.74
164.15
163.12
162.53
161.58
160.09
158.21
156.21
154.08
151.64
148.66
145.04
140.86
136.12
130.47
123.3
114.01
102.47
89.19
75.12
61.09
47.22
32.73
16.24
-3.57
-27.28
-54.34
-83.21
-111.87
-138.53
-162.08
-182.32
-199.64
-214.59
-227.33
-237.69
-245.26
-249.93
-252.01
-252.25
-251.34
-249.46
-246.1
-240.36
-231.48
-219.43
-204.97
-189.46
-174.31
-160.54
-148.64
-138.63
-130.17
-122.61
-115.07
-106.53
-96.16
-83.66
-69.55
-55.08
-41.75
-30.74
-22.49
-16.56
-12.08
-8.2
-4.39
-0.52
3.26
6.71
9.53
11.35
11.7
10.29
7.25
3.34
-0.1
-1.69
-0.43
3.77
10.27
18.12
26.66
35.81
45.93
57.29
69.42
81
90.13
95.11
95.25
91.2
84.66
77.49
70.88
64.84
58.41
50.41
40.13
27.87
14.64
1.71
-10
-20.2
-29.17
-37.34
-45.12
-52.69
-59.99
-66.87
-73.14
-78.67
-83.43
-87.54
-91.1
-94.01
-95.81
-95.55
-92.19
-84.96
-73.86
-59.88
-44.72
-30.38
-18.88
-12.02
-11.3
-17.65
-30.88
-49.24
-69.47
-87.43
-99.33
-102.83
-97.59
-85.02
-67.49
-47.49
-27.09
-7.91
8.76
21.96
31.14
36.54
39.15
40.61
42.67
46.81
53.64
62.77
72.66
80.94
85.1
83.2
74.68
60.73
43.97
27.68
14.75
6.71
3.36
2.83
2.43
-0.39
-7.03
-17.46
-30.42
-44.05
-56.66
-66.93
-73.85
-76.11
-71.91
-59.13
-36.07
-2.44
40.02
87.53
134.92
176.84
208.91
228.56
235.29
230.33
215.99
194.9
169.49
141.83
113.73
87.04
63.61
44.98
31.83
23.32
17.03
9.52
-2.47
-20.68
-44.31
-70.01
-92.83
-107.82
-111.7
-103.81
-86.31
-63.16
-38.72
-16.3
2.52
17.9
30.96
42.78
53.81
63.69
71.6
76.83
79.09
78.73
76.48
73.28
70.05
67.72
67.1
68.79
72.85
78.65
84.94
90.18
93.05
92.75
89.28
83.31
75.94
68.15
60.28
51.37
38.94
19.58
-9.63
-49.14
-95.61
-142.12
-180.18
-202.86
-207.37
-195.87
-174.14
-148.96
-125.71
-107.22
-94.2
-86.28
-82.96
-83.69
-87.55
-92.85
-97.46
-99.48
-97.96
-93.13
-86.19
-78.76
-72.32
-67.92
-65.93
-66.06
-67.42
-68.87
-69.33
-68.19
-65.41
-61.47
-57
-52.42
-47.92
-43.42
-38.79
-33.95
-28.84
-23.31
-17.02
-9.54
-0.46
10.28
22.35
34.99
47.28
58.32
67.48
74.53
79.63
83.13
85.18
85.51
83.35
77.75
68.01
54.13
36.76
16.94
-4.17
-25.32
-44.92
-60.95
-71.23
-74.21
-69.74
-59.38
-45.84
-31.76
-18.68
-6.66
5.18
17.66
30.89
44.2
56.73
67.82
77.2
84.54
89.15
90.02
86.32
78.21
67.19
55.89
47.2
43.32
44.95
51.25
60.39
70.28
79.38
86.96
93.01
97.76
101.34
103.62
104.33
103.34
100.9
97.38
92.93
87.28
79.7
69.47
56.45
41.51
26.4
13.08
2.89
-4.21
-9.63
-15.51
-23.66
-34.57
-47.02
-58.49
-66.11
-67.74
-62.63
-51.45
-35.75
-17.46
1.59
19.83
35.85
48.52
57.18
61.98
64.01
65.01
66.9
71.06
77.88
86.64
95.8
103.56
108.37
109.26
105.91
98.51
87.55
73.65
57.32
38.94
18.68
-3.33
-26.84
-51.12
-74.76
-95.8
-111.98
-121.43
-123.22
-117.87
-107.4
-94.93
-83.98
-77.44
-76.86
-82.06
-91.4
-102.33
-112.16
-118.61
-120.22
-116.53
-108.13
-96.43
-83.23
-70.08
-57.71
-45.92
-34.02
-21.5
-8.57
3.97
15.26
25.09
34.02
42.87
51.95
60.52
67.12
70.37
69.98
66.96
63.26
60.76
60.39
61.89
64.15
65.93
66.56
66.08
65.1
64.22
63.55
62.56
60.21
55.29
46.75
33.89
16.35
-5.93
-32.57
-62.47
-93.77
-124
-150.85
-172.82
-189.87
-203.41
-215.69
-228.95
-244.51
-262.33
-281.14
-298.96
-313.76
-323.92
-328.56
-327.39
-320.63
-308.8
-292.6
-272.78
-250.05
-224.91
-197.63
-168.29
-136.95
-103.9
-69.92
-36.22
-4.24
24.67
49.51
69.79
85.52
97.05
104.97
109.93
112.5
113.03
111.59
108.04
102.16
94.07
84.49
74.87
67.16
63.23
64.15
69.75
78.65
88.77
98.12
105.47
110.56
113.9
116.17
117.88
119.16
119.87
119.86
119.15
117.92
116.41
114.72
112.84
110.63
107.86
104.3
99.75
94.2
87.82
81
74.23
67.91
62.26
57.21
52.54
47.93
43.15
37.99
32.31
26.07
19.48
13.14
8.09
5.5
6.26
10.53
17.59
26.1
34.63
42.09
47.91
51.89
53.87
53.6
50.68
44.9
36.49
26.23
15.17
4.44
-5.13
-13.1
-19.34
-23.9
-26.86
-28.36
-28.6
-27.95
-26.9
-25.99
-25.66
-26.11
-27.33
-29
-30.56
-31.4
-31.08
-29.65
-27.75
-26.46
-26.75
-28.97
-32.51
-35.9
-37.44
-35.94
-31.21
-24.07
-15.81
-7.59
0
6.91
13.34
19.26
24.32
27.98
29.86
29.93
28.73
27.08
25.73
25.16
25.36
26.02
26.69
27.01
26.82
26.13
25.03
23.62
21.94
19.95
17.62
14.92
11.89
8.59
5.16
1.69
-1.79
-5.3
-8.87
-12.43
-15.68
-18.13
-19.2
-18.5
-16
-12.12
-7.58
-3.2
0.42
3.03
4.75
5.84
6.52
6.84
6.69
5.89
4.39
2.31
-0.04
-2.23
-3.77
-4.17
-3.02
-0.1
4.47
10.24
16.51
22.55
27.96
32.73
37.25
42.03
47.35
53.14
58.88
63.86
67.33
68.73
67.81
64.7
60
54.64
49.69
46.06
44.18
43.88
44.57
45.51
46.14
46.25
45.87
45.02
43.57
41.26
37.92
33.69
29.02
24.45
20.29
16.41
12.24
7.11
0.63
-7.05
-15.2
-22.85
-29.16
-33.73
-36.7
-38.58
-39.95
-41.22
-42.5
-43.67
-44.58
-45.1
-45.24
-45.12
-44.82
-44.39
-43.72
-42.75
-41.43
-39.89
-38.29
-36.75
-35.3
-33.84
-32.21
-30.31
-28.09
-25.63
-23.13
-20.82
-18.91
-17.5
-16.54
-15.89
-15.31
-14.59
-13.61
-12.38
-11.03
-9.71
-8.53
-7.54
-6.73
-6.09
-5.66
-5.5
-5.7
-6.28
-7.23
-8.48
-9.9
-11.36
-12.76
-14.01
-15.06
-15.8
-16.1
-15.88
-15.08
-13.8
-12.2
-10.56
-9.08
-7.88
-6.93
-6.14
-5.4
-4.66
-3.96
-3.34
-2.83
-2.45
-2.15
-1.92
-1.73
-1.56
-1.39
-1.18
-0.86
-0.44
0.04
0.44
0.61
0.46
-0.02
-0.72
-1.51
-2.24
-2.86
-3.37
-3.79
-4.09
-4.18
-4.03
-3.63
-3.07
-2.45
-1.85
-1.27
-0.61
0.16
0.95
1.58
1.83
1.57
0.87
-0.02
-0.75
-1.08
-0.94
-0.45
0.18
0.76
1.18
1.44
1.54
1.54
1.45
1.31
1.15
1
0.83
0.55
0
-0.93
-2.22
-3.73
-5.15
-6.14
-6.44
-6.03
-5.06
-3.84
-2.7
-1.9
-1.49
-1.31
-1.15
-0.8
-0.15
0.69
1.57
2.28
2.65
2.64
2.27
1.68
1.01
0.39
-0.1
-0.42
-0.61
-0.72
-0.8
-0.91
-1.05
-1.26
-1.58
-2.06
-2.76
-3.64
-4.63
-5.62
-6.51
-7.25
-7.82
-8.29
-8.75
-9.3
-9.97
-10.7
-11.3
-11.5
-11.06
-9.84
-7.91
-5.56
-3.16
-1.11
0.33
1.14
1.47
1.63
1.87
2.28
2.68
2.76
2.18
0.78
-1.24
-3.43
-5.22
-6.22
-6.39
-6.11
-5.95
-6.46
-7.94
-10.36
-13.49
-16.93
-20.16
-22.53
-23.36
-22.21
-19.41
-16.25
-14.86
-17.3
-24.44
-35.34
-47.43
-57.65
-63.87
-65.81
-64.99
-63.85
-64.47
-67.7
-73
-78.9
-83.8
-86.45
-86.17
-82.76
-76.29
-67.01
-55.25
-41.52
-26.52
-11.17
3.49
16.46
27.08
35.27
41.48
46.47
50.88
55.02
58.69
61.37
62.57
62.13
60.42
58.21
56.51
56.09
57.35
60.16
63.98
68.09
71.78
74.52
75.99
76.08
74.87
72.54
69.35
65.53
61.32
56.94
52.63
48.66
45.29
42.76
41.14
40.39
40.31
40.66
41.21
41.75
42.01
41.63
40.1
36.91
31.77
24.77
16.51
7.91
-0.01
-6.5
-11.2
-14.17
-15.65
-15.89
-15.07
-13.33
-10.92
-8.32
-6.1
-4.79
-4.71
-5.81
-7.72
-9.97
-12.14
-13.96
-15.37
-16.4
-17.12
-17.58
-17.81
-17.85
-17.77
-17.68
-17.69
-17.89
-18.28
-18.84
-19.49
-20.15
-20.8
-21.47
-22.2
-23
-23.87
-24.7
-25.46
-26.08
-26.5
-26.67
-26.44
-25.67
-24.29
-22.39
-20.2
-18.04
-16.19
-14.71
-13.56
-12.62
-11.78
-11.03
-10.45
-10.06
-9.85
-9.68
-9.45
-9.08
-8.6
-8.04
-7.46
-6.91
-6.4
-5.98
-5.73
-5.71
-5.97
-6.49
-7.2
-8.06
-9.07
-10.29
-11.78
-13.54
-15.41
-17.13
-18.39
-18.98
-18.87
-18.26
-17.41
-16.55
-15.72
-14.77
-13.44
-11.51
-8.8
-5.23
-0.71
4.84
11.38
18.56
25.69
31.88
36.32
38.69
39.38
39.37
39.87
41.77
45.3
49.89
54.51
58.13
60.14
60.43
59.31
57.13
54.06
50.11
45.31
39.95
34.61
29.92
26.19
23.19
20.27
16.67
12.04
6.62
1.13
-3.55
-6.93
-8.99
-10.2
-11.16
-12.29
-13.6
-14.76
-15.27
-14.7
-12.97
-10.38
-7.61
-5.55
-5.06
-6.64
-10.27
-15.3
-20.6
-24.88
-27.12
-26.88
-24.39
-20.52
-16.59
-13.94
-13.7
-16.41
-21.9
-29.34
-37.4
-44.68
-50.11
-53.18
-54.01
-53.18
-51.47
-49.45
-47.42
-45.32
-42.85
-39.63
-35.33
-29.78
-23.12
-15.64
-7.81
-0.11
7.05
13.47
19.25
24.78
30.59
37.15
44.59
52.53
60.12
66.27
69.94
70.4
67.3
60.61
50.57
37.67
22.65
6.55
-9.49
-24.39
-37.46
-48.49
-57.75
-65.72
-72.84
-79.31
-85.09
-89.98
-93.76
-96.3
-97.44
-97.02
-94.83
-90.71
-84.73
-77.21
-68.74
-59.9
-51.09
-42.4
-33.76
-25.13
-16.68
-8.77
-1.64
4.71
10.65
16.63
22.84
29.01
34.57
38.96
41.9
43.54
44.24
44.27
43.6
42.05
39.51
36.22
32.79
29.89
28.01
27.18
27
26.84
26.17
24.79
22.87
20.88
19.31
18.59
18.8
19.8
21.23
22.71
23.95
24.82
25.33
25.56
25.62
25.57
25.39
25.08
24.58
23.9
23.1
22.27
21.55
20.98
20.45
19.73
18.46
16.36
13.27
9.32
4.86
0.4
-3.44
-6.21
-7.67
-7.95
-7.51
-6.93
-6.73
-7.12
-7.95
-8.75
-9.07
-8.58
-7.31
-5.64
-4.19
-3.54
-4.07
-5.71
-8.03
-10.32
-11.85
-12.15
-11.05
-8.73
-5.46
-1.62
2.46
6.47
10.07
13.06
15.39
17.21
18.71
19.94
20.61
20.23
18.32
14.86
10.47
6.38
3.97
4.25
7.31
12.26
17.54
21.54
23.17
22.25
19.38
15.61
11.97
9.18
7.58
7.16
7.73
8.92
10.33
11.62
12.64
13.54
14.66
16.34
18.74
21.74
25.07
28.42
31.65
34.75
37.69
40.29
42.08
42.29
39.98
34.18
24.24
10.05
-7.59
-26.9
-45.48
-60.93
-71.64
-77.21
-78.5
-77.06
-74.43
-71.6
-68.95
-66.47
-64.22
-62.43
-61.46
-61.42
-62
-62.5
-62.14
-60.52
-57.77
-54.51
-51.43
-48.93
-46.83
-44.56
-41.45
-37.1
-31.55
-25.18
-18.47
-11.76
-5.17
1.29
7.56
13.41
18.54
22.69
25.76
27.8
29.04
29.7
29.93
29.84
29.57
29.31
29.26
29.59
30.28
31.03
31.35
30.7
28.75
25.48
21.25
16.63
12.14
8.06
4.4
1.03
-2.09
-4.85
-6.98
-8.27
-8.82
-8.99
-9.29
-10.09
-11.39
-12.75
-13.58
-13.39
-12.06
-9.8
-7.05
-4.21
-1.46
1.24
4.03
7.05
10.4
14.11
18.11
22.16
25.79
28.38
29.29
28.16
25.08
20.57
15.38
10.23
5.67
2
-0.61
-2.03
-2.2
-1.18
0.71
2.92
4.81
5.89
6.02
5.41
4.41
3.31
2.17
0.72
-1.35
-4.24
-7.87
-11.83
-15.59
-18.68
-20.92
-22.36
-23.26
-23.84
-24.22
-24.35
-24.09
-23.38
-22.28
-21.04
-19.97
-19.29
-18.98
-18.8
-18.37
-17.45
-16.08
-14.57
-13.35
-12.75
-12.77
-13.12
-13.4
-13.32
-12.91
-12.39
-12.08
-12.12
-12.41
-12.67
-12.65
-12.23
-11.57
-10.9
-10.44
-10.29
-10.4
-10.66
-10.96
-11.3
-11.65
-11.98
-12.17
-12.07
-11.57
-10.67
-9.43
-7.99
-6.46
-4.97
-3.57
-2.3
-1.15
-0.05
1.08
2.32
3.63
4.88
5.89
6.52
6.72
6.61
6.4
6.24
6.23
6.28
6.21
5.82
4.93
3.51
1.6
-0.64
-3.02
-5.39
-7.6
-9.57
-11.28
-12.73
-13.94
-14.91
-15.56
-15.73
-15.29
-14.18
-12.53
-10.65
-8.95
-7.81
-7.44
-7.79
-8.6
-9.51
-10.15
-10.37
-10.2
-9.89
-9.74
-9.95
-10.55
-11.36
-12.19
-12.92
-13.64
-14.62
-16.11
-18.22
-20.82
-23.51
-25.86
-27.47
-28.07
-27.55
-25.88
-23.12
-19.47
-15.44
-11.86
-9.61
-9.38
-11.2
-14.4
-17.89
-20.72
-22.52
-23.53
-24.15
-24.45
-23.86
-21.48
-16.75
-9.85
-1.88
5.71
11.81
16.13
19.12
21.5
23.81
26.21
28.64
31.13
33.92
37.37
41.75
47.04
52.89
58.69
63.77
67.41
69
68.14
64.81
59.45
52.9
46.16
39.88
34.05
27.92
20.13
9.34
-5.21
-23.24
-43.37
-63.57
-81.86
-96.92
-108.27
-116.03
-120.37
-121.19
-118.11
-110.85
-99.64
-85.67
-71
-58.14
-49.49
-46.69
-50.08
-58.42
-68.99
-78.07
-81.72
-76.92
-62.53
-40.01
-13.21
12.46
31.53
40.04
36.7
23.17
3.22
-18.64
-38.73
-55.07
-67.23
-75.44
-79.63
-79.08
-73.02
-61.48
-45.87
-28.5
-11.31
5.33
22.83
43.49
68.71
97.67
127.3
153.51
173.02
184.55
188.92
188.13
184.25
178.72
172.24
165.22
158.02
151.02
144.49
138.6
133.47
129.36
126.69
125.65
126.05
127.17
127.98
127.68
125.94
122.98
119.21
114.96
110.17
104.55
97.86
90.21
82.11
74.21
66.98
60.39
53.93
46.82
38.4
28.28
16.38
2.89
-11.87
-27.43
-43.26
-58.68
-72.99
-85.62
-96.24
-104.76
-111.27
-115.86
-118.52
-119.13
-117.67
-114.35
-109.7
-104.45
-99.31
-94.71
-90.72
-87.08
-83.49
-79.78
-76
-72.43
-69.38
-67.13
-65.85
-65.58
-66.1
-66.94
-67.26
-65.97
-61.93
-54.32
-42.95
-28.42
-12
4.7
20.18
33.37
43.79
51.47
56.74
60.01
61.61
61.84
61.02
59.58
58.05
56.93
56.54
56.84
57.38
57.51
56.58
54.23
50.51
45.77
40.49
35.02
29.52
23.92
18.11
12.07
5.88
-0.37
-6.54
-12.55
-18.14
-22.85
-26.04
-27.05
-25.5
-21.49
-15.62
-8.77
-1.9
4.24
9.15
12.55
14.2
13.91
11.52
7.12
1.1
-5.85
-12.84
-19.09
-24.03
-27.54
-29.76
-31.04
-31.76
-32.26
-32.85
-33.86
-35.63
-38.38
-42.06
-46.25
-50.4
-54.08
-57.3
-60.53
-64.63
-70.37
-78.16
-87.72
-98.16
-108.19
-116.41
-121.67
-123.3
-121.2
-115.84
-108.09
-98.99
-89.45
-80.16
-71.57
-64.01
-57.75
-53.03
-49.92
-48.37
-48.14
-49
-50.7
-52.82
-54.51
-54.37
-50.76
-42.33
-28.87
-11.82
5.83
20.26
28.06
27.26
17.93
1.9
-18.03
-39
-58.8
-76.16
-90.61
-102.34
-112.02
-120.57
-129
-137.99
-147.49
-156.46
-162.88
-164.25
-158.46
-144.67
-123.83
-98.48
-71.96
-47.24
-25.92
-8
7.57
22.01
35.87
48.75
59.8
68.38
74.62
79.29
83.34
87.35
91.23
94.45
96.41
96.83
95.74
93.33
89.65
84.53
77.69
68.92
58.22
45.92
32.58
18.92
5.66
-6.62
-17.64
-27.34
-35.77
-42.75
-47.73
-49.7
-47.36
-39.58
-25.74
-6.08
18.3
45.66
73.93
101.15
125.59
145.88
160.9
169.79
171.95
167.19
156.01
139.82
120.93
102.11
85.87
73.85
66.43
62.93
62.13
62.81
64.16
65.77
67.5
69.46
72.04
75.97
82.2
91.42
103.39
116.52
127.84
133.93
132.28
122.44
106.56
88.71
73.45
64.16
61.99
65.85
73.37
82.1
90.25
96.8
101.16
102.83
101.73
98.61
95.34
94.52
98.47
108.19
122.85
139.96
156.08
167.6
171.26
164.52
145.78
114.55
71.78
20.17
-35.92
-90.9
-138.59
-173.46
-192
-194.07
-183.73
-168.69
-158.05
-158.92
-173.51
-198.02
-224.25
-242.99
-247.88
-237.95
-217.78
-195.43
-179.02
-173.52
-179.14
-191.69
-204.82
-212.87
-212.86
-205
-191.53
-174.85
-156.09
-135.01
-111.29
-85.88
-61.64
-42.42
-31.09
-27.83
-29.84
-32.44
-31.3
-24.21
-11.76
3.44
18.28
30.73
40.43
48.43
56.26
64.85
74.05
82.7
89.29
92.64
92.46
89.36
84.6
79.54
75.13
71.57
68.29
64.31
58.68
50.99
41.64
31.85
23.41
18.21
17.8
23.03
33.73
48.78
66.36
84.43
101.26
115.8
127.74
137.36
145.12
151.44
156.62
161.02
165.16
169.69
175.15
181.6
188.52
194.89
199.66
202.07
201.74
198.62
192.69
183.81
171.94
157.41
141.18
124.76
109.75
97.34
87.86
80.99
76.03
72.48
70.21
69.32
69.85
71.5
73.62
75.53
76.82
77.47
77.7
77.72
77.53
76.92
75.72
73.96
71.85
69.52
66.78
63.03
57.51
49.79
40.03
29.01
17.78
7.23
-2.18
-10.27
-16.89
-21.73
-24.49
-25.19
-24.45
-23.37
-23.05
-24.05
-26.17
-28.65
-30.94
-33.26
-36.91
-43.98
-56.4
-74.91
-98.28
-123.24
-145.24
-159.92
-164.45
-158.33
-143.22
-122.07
-98.04
-73.85
-51.78
-33.93
-22.36
-18.65
-23.14
-34.32
-49.13
-64
-76.28
-85.22
-91.73
-97.48
-103.68
-110.54
-117.6
-124.56
-132.08
-141.64
-154.72
-171.55
-190.35
-207.56
-219.18
-222.27
-216.13
-202.34
-183.74
-163.18
-142.52
-122.52
-103.48
-86.05
-71.74
-62.49
-59.97
-64.6
-75.26
-89.6
-104.98
-119.49
-132.49
-144.56
-156.77
-169.86
-183.69
-197.25
-209.22
-218.45
-224.31
-226.36
-224.02
-216.38
-202.51
-182.06
-155.76
-125.4
-93.26
-61.36
-31.02
-2.79
23.02
45.96
65.24
79.98
89.71
94.8
96.5
96.56
96.73
98.13
101
104.74
108.27
110.49
110.8
109.22
106.25
102.42
98.04
93.1
87.48
81.21
74.59
68.09
62.14
56.92
52.31
47.85
42.95
37.03
29.72
21.06
11.64
2.56
-4.82
-9.3
-10.27
-7.92
-3.09
3.14
9.92
16.82
23.78
30.81
37.7
44.01
49.19
52.93
55.34
56.9
58.32
60.18
62.79
66.03
69.44
72.37
74.16
74.36
72.85
69.91
66.2
62.46
59.31
57.06
55.6
54.63
53.74
52.75
51.67
50.65
49.83
49.13
48.24
46.66
43.83
39.23
32.57
23.85
13.47
2.28
-8.41
-17.1
-22.31
-23.09
-19.28
-11.57
-1.27
10.09
21.17
31
38.97
44.72
47.99
48.63
46.73
42.75
37.6
32.42
28.26
25.66
24.41
23.65
22.17
18.92
13.43
6.04
-2.16
-9.57
-14.63
-16.18
-13.9
-8.37
-0.97
6.45
12.14
14.86
14.29
11.16
7.19
4.6
5.43
10.59
19.52
30.3
40.73
49.47
56.87
64.79
75.42
89.8
106.95
124.06
137.71
145.44
146.68
142.7
135.7
127.63
119.44
111.01
101.66
90.79
78.28
64.53
50.27
36.31
23.45
12.45
4.08
-1.02
-2.52
-0.79
2.92
6.66
8.29
6.34
0.58
-7.75
-16.56
-23.66
-27.69
-28.55
-27.17
-25.01
-23.31
-22.73
-23.29
-24.55
-25.86
-26.5
-25.74
-22.97
-17.84
-10.47
-1.58
7.66
15.93
22.09
25.49
26.04
24.14
20.44
15.69
10.59
5.76
1.71
-1.23
-2.95
-3.6
-3.6
-3.59
-4.17
-5.8
-8.7
-12.9
-18.25
-24.57
-31.6
-38.98
-46.3
-53.06
-58.93
-63.83
-68.17
-72.76
-78.59
-86.49
-96.79
-109.12
-122.29
-134.53
-143.79
-148.18
-146.43
-138.26
-124.54
-107
-87.73
-68.57
-50.73
-34.65
-20.32
-7.61
3.37
12.24
18.61
22.29
23.58
23.15
21.88
20.58
19.72
19.44
19.58
19.68
19.05
16.8
12.03
4.07
-7.3
-21.68
-38.11
-55.2
-71.42
-85.18
-95.09
-100.07
-99.6
-93.95
-84.26
-72.33
-60.14
-49.17
-40.01
-32.26
-24.79
-16.28
-5.73
7.25
22.36
38.74
55.26
70.82
84.7
96.76
107.42
117.51
127.86
138.88
150.19
160.45
167.81
170.54
167.89
160.71
151.14
141.77
134.4
129.16
124.5
118.15
108.26
94.24
76.64
56.48
34.6
11.58
-11.63
-33.2
-50.44
-60.79
-63.32
-59.65
-53.81
-50.71
-54.24
-65.69
-83.46
-103.98
-123.23
-138.06
-146.83
-149.33
-146.18
-138.36
-126.96
-113.04
-97.75
-82.33
-67.9
-55.32
-45.01
-36.9
-30.58
-25.43
-20.88
-16.48
-12
-7.39
-2.73
1.91
6.49
11.11
15.89
20.96
26.25
31.47
36.11
39.48
40.97
40.17
36.88
31.19
23.43
14.11
4.02
-5.83
-14.41
-21.02
-25.54
-28.41
-30.35
-31.85
-32.78
-32.39
-29.66
-23.93
-15.2
-4.19
8.03
20.49
32.66
44.41
55.76
66.63
76.56
84.9
90.92
94.2
94.87
93.68
91.69
89.8
88.3
86.61
83.65
78.39
70.5
60.47
49.38
38.23
27.52
17.07
6.41
-4.75
-16.14
-27.03
-36.59
-44.25
-49.99
-54.27
-57.7
-60.9
-64.26
-67.98
-72.05
-76.24
-80.09
-82.83
-83.5
-81.15
-75.17
-65.59
-53.23
-39.51
-25.99
-13.92
-3.95
3.89
9.94
14.49
17.63
19.25
19.32
18.08
16.17
14.42
13.56
13.96
15.46
17.55
19.61
21.24
22.4
23.42
24.68
26.4
28.41
30.17
30.95
30.07
27.19
22.42
16.31
9.69
3.38
-2.05
-6.46
-10.16
-13.8
-18.19
-23.99
-31.52
-40.49
-50.04
-58.82
-65.29
-68.03
-66.1
-59.33
-48.35
-34.48
-19.26
-4.14
9.88
22.3
32.95
41.75
48.52
53
54.94
54.39
51.81
48.05
44.12
40.8
38.4
36.69
35.05
32.78
29.42
24.89
19.5
13.72
7.94
2.38
-2.95
-8.1
-13.13
-18.04
-22.82
-27.5
-32.12
-36.69
-41.17
-45.41
-49.2
-52.44
-55.14
-57.48
-59.67
-61.78
-63.45
-63.89
-61.9
-56.28
-46.25
-31.77
-13.76
6.12
25.89
43.69
58.24
68.97
76
79.97
81.8
82.47
82.83
83.5
84.68
86.18
87.36
87.32
85.2
80.47
73.29
64.54
55.61
47.86
42.13
38.36
