0
0
0
0
0
0
0
0
0
0
0
0.01
0.01
0
-0.03
-0.05
-0.05
0
0.13
0.36
0.66
1.01
1.37
1.72
2.06
2.4
2.79
3.24
3.8
4.42
5.06
5.66
6.2
6.68
7.15
7.68
8.31
9.14
10.09
11.04
11.88
12.56
13.14
13.76
14.65
15.96
17.91
20.32
22.9
25.38
27.58
29.57
31.68
34.32
37.81
42.54
48.15
54.1
59.83
64.97
69.58
74.14
79.34
85.71
93.76
103
112.62
121.73
129.77
136.75
143.3
150.75
157.77
166.64
177.95
191.79
206.97
220.57
228.25
225.36
208.53
176.87
132.76
80.05
23.07
-34.94
-92.44
-149.16
-205.23
-260.37
-313.74
-363.87
-409.83
-450.91
-486.5
-515.74
-537.23
-549.22
-549.96
-538.37
-514.21
-478.67
-433.88
-382.45
-327.02
-269.84
-212.63
-156.66
-102.95
-52.37
-5.9
35.58
71.43
101.35
125.5
144.38
158.69
169.15
176.37
180.75
182.57
182.07
179.51
175.23
169.65
163.18
156.15
148.81
141.3
133.69
126.02
118.33
110.69
103.16
95.8
88.68
81.83
75.25
68.95
62.95
57.25
51.86
46.78
42.03
37.59
33.45
29.61
26.07
22.81
19.83
17.11
14.67
12.48
10.54
8.83
7.35
6.07
4.97
4.05
3.27
2.62
2.09
1.65
1.3
1.01
0.79
0.61
0.47
0.37
0.28
0.23
0.18
0.15
0.13
0.13
0.13
0.14
0.16
0.18
0.21
0.25
0.28
0.32
0.36
0.41
0.46
0.5
0.55
0.61
0.66
0.71
0.78
0.84
0.91
1
1.08
1.17
1.28
1.4
1.55
1.72
1.91
2.1
2.29
2.45
2.61
2.77
2.97
3.24
3.59
4.01
4.47
4.94
5.4
5.86
6.33
6.85
7.47
8.19
9
9.85
10.66
11.4
12.09
12.78
13.57
14.56
15.76
17.1
18.42
19.52
20.22
20.46
20.26
19.73
18.97
17.94
16.46
14.2
10.85
6.22
0.5
-5.85
-12.15
-17.79
-22.39
-26
-28.98
-31.86
-34.99
-38.37
-41.6
-44.09
-45.4
-45.36
-44.32
-42.92
-41.9
-41.83
-43.1
-45.92
-50.05
-54.61
-57.87
-57.57
-51.71
-39.59
-22.48
-3.39
13.92
26.47
33.1
34.71
33.36
31.09
29.04
27.27
25.39
23.14
20.83
19.06
18.27
18.34
18.67
18.5
17.24
14.94
12.11
9.46
7.6
6.72
6.57
6.64
6.39
5.46
3.89
1.97
0.17
-1.12
-1.77
-1.93
-1.96
-2.18
-2.75
-3.48
-4
-3.95
-3.1
-1.56
0.37
2.27
3.79
4.81
5.4
5.73
5.94
6.12
6.19
6.13
5.94
5.73
5.63
5.76
6.08
6.48
6.8
6.87
6.69
6.33
5.95
5.67
5.49
5.38
5.22
4.93
4.5
4
3.49
2.99
2.49
1.86
1.04
-0.07
-1.45
-3.05
-4.81
-6.68
-8.61
-10.54
-12.37
-13.9
-14.9
-15.15
-14.57
-13.23
-11.33
-9.19
-6.99
-4.88
-2.87
-0.95
0.85
2.42
3.59
4.28
4.45
4.24
3.84
3.53
3.48
3.72
4.2
4.76
5.24
5.55
5.66
5.61
5.43
5.15
4.79
4.37
3.98
3.69
3.55
3.54
3.57
3.52
3.3
2.8
1.98
0.79
-0.79
-2.72
-4.89
-7.13
-9.19
-10.81
-11.77
-11.87
-11.05
-9.34
-6.92
-4.14
-1.4
0.86
2.38
3.07
3.19
3.1
3.23
3.8
4.8
6.05
7.27
8.28
9.01
9.49
9.81
9.95
9.87
9.44
8.62
7.43
6.05
4.7
3.57
2.79
2.29
1.9
1.38
0.58
-0.59
-2.07
-3.72
-5.46
-7.2
-8.96
-10.71
-12.42
-13.96
-15.15
-15.76
-15.56
-14.42
-12.33
-9.52
-6.32
-3.14
-0.39
1.73
3.07
3.71
3.76
3.44
2.98
2.65
2.7
3.23
4.26
5.57
6.88
7.89
8.4
8.37
7.9
7.21
6.44
5.75
5.13
4.58
4.06
3.56
3.07
2.54
1.89
0.99
-0.23
-1.85
-3.8
-5.97
-8.19
-10.28
-12.08
-13.46
-14.39
-14.86
-14.93
-14.64
-14.05
-13.12
-11.76
-9.9
-7.51
-4.76
-1.92
0.67
2.8
4.42
5.59
6.43
7
7.3
7.3
7.08
6.82
6.69
6.85
7.25
7.77
8.2
8.48
8.57
8.5
8.31
7.98
7.54
7.03
6.57
6.23
5.99
5.73
5.25
4.36
2.96
1.12
-1.04
-3.28
-5.42
-7.29
-8.83
-10.08
-11.05
-11.77
-12.17
-12.2
-11.78
-10.91
-9.68
-8.18
-6.51
-4.73
-2.91
-1.09
0.61
2.12
3.4
4.42
5.22
5.77
6.05
6.04
5.84
5.7
5.88
6.6
7.83
9.29
10.51
11.09
10.78
9.69
8.15
6.59
5.4
4.7
4.43
4.28
4.01
3.4
2.45
1.24
-0.16
-1.68
-3.38
-5.26
-7.17
-8.85
-9.96
-10.37
-10.19
-9.87
-9.89
-10.56
-11.74
-12.86
-13.22
-12.27
-9.96
-6.72
-3.32
-0.48
1.39
2.29
2.56
2.58
2.69
3.01
3.54
4.23
5.07
6.04
7.08
8.02
8.64
8.74
8.28
7.45
6.64
6.24
6.5
7.3
8.21
8.63
8.13
6.61
4.41
2.1
0.18
-1.17
-2.11
-2.96
-4.04
-5.42
-6.97
-8.48
-9.76
-10.73
-11.28
-11.3
-10.61
-9.1
-6.88
-4.3
-1.89
-0.1
0.87
1.11
0.93
0.64
0.45
0.36
0.34
0.32
0.36
0.47
0.65
0.75
0.62
0.18
-0.57
-1.45
-2.3
-2.96
-3.42
-3.83
-4.46
-5.63
-7.54
-10.23
-13.42
-16.67
-19.44
-21.43
-22.59
-23.22
-23.86
-25.02
-27.05
-29.95
-33.31
-36.23
-37.46
-35.61
-29.56
-18.93
-4.25
12.95
30.74
47.38
61.96
74.55
85.76
96.18
105.8
113.96
119.67
122.27
121.85
119.23
115.55
111.72
108.12
104.62
101
97.24
93.69
90.77
88.55
86.52
83.61
78.74
71.25
61.33
50.04
38.95
29.64
23.15
19.79
19.13
20.28
22.15
23.86
24.9
25.25
25.41
26.12
28.25
32.28
38.09
44.76
50.75
54.23
53.73
48.69
39.67
28.4
17.25
8.56
4.14
4.7
9.91
18.44
28.48
38.22
46.36
52.5
57.09
61.23
66.03
72.12
79.24
86.33
92
95.1
95.23
92.68
88.19
82.35
75.3
66.55
55.32
40.98
23.31
2.51
-21.14
-47.72
-77.95
-112.78
-152.81
-197.44
-244.41
-289.95
-329.37
-358.08
-372.51
-370.75
-352.92
-321.09
-279
-231.47
-183.62
-139.89
-103.37
-75.38
-55.76
-43.43
-37.05
-35.45
-37.51
-41.96
-47.1
-51.01
-52.11
-49.78
-44.68
-38.43
-32.82
-28.9
-26.55
-24.69
-22
-17.74
-12.17
-6.34
-1.42
1.86
3.58
4.33
4.75
5
4.63
2.84
-1.08
-7.1
-14.32
-20.93
-24.8
-24.17
-18.29
-7.91
4.94
17.53
27.41
33.24
35.15
34.42
32.79
31.56
31.13
31.09
30.55
28.73
25.22
20.21
14.32
8.46
3.62
0.57
-0.35
0.58
2.62
4.79
6.23
6.41
5.09
2.19
-2.35
-8.47
-15.8
-23.5
-30.35
-35.21
-37.47
-37.36
-35.72
-33.54
-31.43
-29.24
-26.34
-22
-15.89
-8.43
-0.65
6.14
10.88
13.04
12.91
11.24
9.11
7.42
6.72
6.98
7.84
8.81
9.61
10.33
11.28
12.86
15.17
18.06
21.07
23.7
25.56
26.42
26.29
25.26
23.56
21.5
19.49
17.94
17.08
17
17.45
18.15
18.75
19.06
19.03
18.65
17.92
16.77
15.19
13.32
11.54
10.29
10
10.75
12.24
13.9
15.08
15.44
15.1
14.57
14.56
15.56
17.62
20.18
22.28
22.86
21.2
17.19
11.45
5.16
-0.32
-3.87
-4.96
-3.69
-0.74
3.03
6.93
10.57
13.96
17.18
20.23
22.74
24.17
23.92
21.63
17.46
11.96
6.02
0.47
-4.12
-7.59
-10.11
-12.05
-13.79
-15.5
-17.18
-18.61
-19.52
-19.67
-18.96
-17.49
-15.49
-13.41
-11.75
-11.13
-11.93
-14.24
-17.62
-21.1
-23.56
-24.05
-22.21
-18.48
-13.91
-9.74
-6.91
-5.82
-6.17
-7.33
-8.5
-9.1
-8.81
-7.6
-5.68
-3.34
-1.01
0.91
2.11
2.45
2.08
1.37
0.81
0.75
1.33
2.27
3.15
3.44
2.84
1.3
-0.87
-3.2
-5.24
-6.72
-7.67
-8.25
-8.76
-9.41
-10.21
-11.03
-11.62
-11.77
-11.4
-10.5
-9.14
-7.34
-5.09
-2.41
0.54
3.43
5.79
7.25
7.67
7.28
6.54
5.89
5.62
5.63
5.66
5.38
4.72
3.85
3.11
2.82
3.08
3.77
4.52
4.98
4.9
4.29
3.33
2.3
1.47
0.92
0.6
0.34
-0.04
-0.62
-1.4
-2.31
-3.32
-4.46
-5.85
-7.52
-9.43
-11.29
-12.74
-13.43
-13.2
-12.18
-10.65
-8.95
-7.22
-5.46
-3.55
-1.5
0.48
2.05
2.85
2.86
2.33
1.79
1.75
2.4
3.61
4.91
5.91
6.34
6.31
6.04
5.82
5.79
5.9
6.08
6.19
6.22
6.18
6.1
5.99
5.8
5.5
5.08
4.57
3.99
3.42
2.95
2.73
2.87
3.33
3.92
4.18
3.7
2.37
0.63
-0.54
0.05
3.34
9.54
18.19
28.23
38.61
48.55
57.61
65.61
72.35
77.65
81.43
84.03
86.21
88.97
93.17
99.23
107.13
116.63
127.65
140.36
155.17
172.43
192.11
213.56
235.4
255.51
271.22
279.75
278.84
267.44
246.14
217.12
183.45
148.19
113.51
80.2
47.92
15.45
-18.86
-56.9
-100.39
-149.98
-204.15
-258.42
-305.75
-338.27
-349.83
-338.18
-305.72
-258.61
-204.45
-150.09
-100.26
-57.59
-23.69
0.17
12.72
13.16
1.67
-20.15
-49.37
-82.46
-116.1
-148.08
-177.52
-204.57
-229.85
-253.98
-277.15
-299.08
-319.26
-336.92
-351.57
-362.3
-367.59
-365.5
-354.61
-334.78
-307.38
-275.25
-241.62
-210.68
-185.08
-164.9
-147.5
-128.94
-105.67
-75.5
-39.32
-0.45
33.19
54.15
58.82
48.81
29.4
6.87
-12.71
-26
-31.39
-33.14
-36.01
-42.17
-50.71
-59.67
-68.02
-74.3
-78.05
-77.54
-76.36
-79.12
-88.1
-102.54
-120.23
-139.46
-157.73
-174.35
-152.85
-74.77
47.94
179.85
288.6
362.11
397.65
412.99
419.4
421.63
414.21
387.89
339.94
273.43
195.29
111.79
28.18
-53.14
-128.21
-178.56
-188.93
-156.39
-94.14
-22.67
40.75
88.33
119.17
138.28
149.67
153.53
149.13
137.19
120.9
104.62
92.91
87.66
89.55
96.33
102.88
105
101.91
96.5
92.94
94.24
99.51
104.91
104.92
94.08
70.47
36.7
-1.76
-40.8
-77.36
-111.53
-144.7
-177.07
-206.83
-230.24
-243.4
-244.39
-234.22
-215.88
-192.65
-166.29
-136.82
-103.88
-67.95
-31
3.95
34.05
57.7
74.8
86.61
94.89
101.09
105.72
108.49
108.77
106.47
102.42
98.08
95.1
94.56
96.59
100.44
104.87
108.67
111.08
111.88
111.14
109.16
106.39
103.27
100.13
96.94
93.36
88.78
82.8
75.43
67.23
59.18
52.26
47.06
43.58
41.26
39.29
36.91
33.65
29.35
24.07
18.06
11.6
5.03
-1.23
-6.76
-11.23
-14.43
-16.26
-16.7
-15.67
-13.1
-9.02
-3.73
2.11
7.7
12.35
15.74
18.03
19.65
21.04
22.4
23.69
24.68
25.26
25.44
25.32
25.04
24.57
23.91
23.07
22.18
21.43
20.98
20.83
20.78
20.54
19.84
18.57
16.67
14.19
11.23
7.93
4.49
1.17
-1.78
-4.24
-6.18
-7.81
-9.49
-11.59
-14.39
-17.83
-21.41
-24.2
-25.17
-23.49
-19.06
-12.65
-5.67
0.25
3.95
5.05
4.01
1.72
-0.9
-3.25
-5.21
-6.96
-8.87
-11.36
-14.8
-19.45
-25.4
-32.46
-40.1
-47.59
-54.16
-59.34
-62.97
-65.17
-66.1
-65.85
-64.45
-61.9
-58.32
-53.87
-48.66
-42.59
-35.49
-27.33
-18.32
-9.11
-0.5
6.78
12.37
16.27
18.77
20.15
20.65
20.42
19.62
18.6
17.83
17.8
18.83
20.92
23.81
27.06
30.29
33.28
35.95
38.16
39.57
39.69
38.04
34.5
29.38
23.42
17.42
11.92
7.09
2.67
-1.78
-6.83
-13.03
-20.84
-30.56
-42.08
-54.73
-67.28
-78.3
-86.43
-90.86
-91.55
-89.06
-84.38
-78.5
-72.19
-65.82
-59.42
-52.75
-45.51
-37.48
-28.71
-19.61
-10.9
-3.42
2.24
5.97
8.31
10.21
12.63
16.11
20.48
24.99
28.6
30.41
29.95
27.31
22.87
17.16
10.69
3.82
-3.06
-9.56
-15.18
-19.47
-22.07
-22.81
-21.82
-19.31
-15.51
-10.52
-4.36
2.98
11.32
20.24
29.15
37.4
44.47
50.07
54.13
56.74
58.07
58.28
57.47
55.66
52.85
49.02
44.21
38.62
32.42
25.72
18.49
10.63
2.19
-6.44
-14.57
-21.46
-26.51
-29.49
-30.49
-29.68
-27.29
-23.6
-19.1
-14.61
-11.16
-9.65
-10.53
-13.6
-18.08
-22.93
-27.17
-30.09
-31.38
-31.05
-29.39
-26.9
-24.17
-21.65
-19.59
-17.86
-16.15
-13.97
-10.97
-7.07
-2.45
2.46
7.21
11.54
15.45
19.18
23.02
27.12
31.33
35.33
38.71
41.17
42.59
42.98
42.47
41.22
39.48
37.67
36.36
36.09
37.18
39.65
43.11
46.93
50.4
52.84
53.62
52.3
48.69
42.99
35.8
27.92
20.12
12.83
6.04
-0.65
-7.59
-14.85
-21.95
-27.91
-31.61
-32.2
-29.55
-24.41
-18.27
-12.86
-9.51
-8.77
-10.15
-12.5
-14.48
-15.2
-14.43
-12.5
-9.94
-7.14
-4.21
-0.95
2.8
7.08
11.56
15.55
18.19
18.66
16.77
13.11
9.21
6.91
7.69
11.93
18.48
25.11
29.36
29.64
26
20.12
14.66
11.98
13.14
17.17
21.58
23.33
20.37
12.71
2.66
-6.18
-10.48
-8.45
-0.38
12.15
26.98
42.13
55.68
64.99
67.24
60.72
47.04
32.05
24.13
29.84
49.49
75.74
96.67
102.28
90.07
66.45
42.65
27.94
24.46
26.93
27.05
19.14
3.7
-13.79
-26.88
-32.3
-31.33
-28.07
-26.27
-26.84
-27.73
-25.44
-17.49
-4.03
12.04
26.02
33.41
31.7
21.41
5.82
-10.25
-22.46
-28.54
-28.99
-26.61
-25.02
-27.11
-33.97
-44.65
-56.72
-67.26
-73.93
-75.68
-72.85
-66.94
-59.97
-53.79
-49.58
-47.66
-47.59
-48.57
-49.74
-50.41
-50.05
-48.35
-45.14
-40.53
-34.96
-29.14
-23.9
-19.77
-16.77
-14.31
-11.53
-7.72
-2.59
3.61
10.45
17.64
25.26
33.69
43.31
54.19
65.83
77.32
87.68
96.13
102.4
106.75
109.66
111.51
112.38
112.01
110.11
106.6
101.77
96.13
90.08
83.64
76.39
67.83
57.64
46.18
34.31
23.12
13.48
5.67
-0.61
-6.05
-11.35
-16.95
-22.93
-29
-34.71
-39.62
-43.59
-46.78
-49.67
-52.81
-56.51
-60.7
-64.85
-68.28
-70.46
-71.29
-71.12
-70.49
-69.8
-69.12
-68.18
-66.68
-64.54
-61.96
-59.43
-57.3
-55.64
-54.1
-52.15
-49.35
-45.61
-41.28
-36.91
-33.05
-29.84
-26.9
-23.51
-18.87
-12.75
-5.6
1.31
6.43
8.52
7.14
3
-2.4
-7.18
-9.74
-9.17
-5.49
0.59
7.83
14.86
20.51
23.95
24.84
23.38
20.25
16.37
12.72
10.03
8.51
7.85
7.28
5.94
3.25
-0.72
-5.2
-8.98
-10.89
-10.39
-7.77
-4.12
-0.8
1.21
1.63
0.96
0.03
-0.51
-0.6
-0.76
-1.79
-4.28
-8.13
-12.68
-16.88
-19.79
-20.76
-19.57
-16.23
-10.9
-3.92
4.15
12.47
20.07
26.04
29.89
31.67
31.82
30.89
29.12
26.38
22.27
16.57
9.62
2.35
-3.92
-8.16
-10
-9.97
-9.18
-8.69
-8.97
-9.65
-9.88
-8.9
-6.6
-3.59
-0.91
0.56
0.51
-0.75
-2.47
-3.89
-4.48
-4.06
-2.75
-0.88
1.11
2.84
4
4.48
4.3
3.6
2.56
1.44
0.53
0.21
0.87
2.65
5.31
8.2
10.44
11.26
10.39
8.23
5.62
3.57
2.8
3.57
5.56
8.12
10.43
11.8
11.81
10.42
7.89
4.72
1.52
-1.16
-2.92
-3.61
-3.36
-2.56
-1.8
-1.62
-2.39
-4.04
-6.15
-8.04
-9.02
-8.72
-7.27
-5.19
-3.21
-1.96
-1.67
-2.11
-2.73
-2.93
-2.41
-1.31
-0.15
0.44
0.03
-1.3
-3.08
-4.59
-5.25
-4.91
-3.86
-2.74
-2.16
-2.46
-3.61
-5.14
-6.42
-6.89
-6.33
-4.98
-3.46
-2.51
-2.59
-3.68
-5.16
-6.03
-5.39
-2.83
1.33
5.99
9.65
10.86
8.73
3.61
-2.48
-5.64
-0.62
17.93
53.39
105.29
168.44
233.63
290.16
328.94
345.01
338.34
312.58
273.17
225.3
173.3
120.79
71.33
28.39
-5.41
-29.2
-44.35
-53.82
-60.85
-67.59
-74.55
-80.88
-85.37
-87.32
-86.77
-84.43
-81.13
-77.69
-74.72
-72.72
-71.95
-72.33
-73.39
-74.36
-74.63
-73.97
-72.79
-71.75
-71.38
-71.78
-72.52
-72.98
-72.56
-71.05
-68.47
-65.07
-61.16
-57.03
-52.96
-49.27
-46.23
-44.02
-42.7
-42.17
-42.2
-42.51
-42.7
-42.47
-41.54
-39.85
-37.48
-34.67
-31.72
-28.91
-26.48
-24.62
-23.51
-23.26
-23.77
-24.76
-25.79
-26.37
-26.18
-25.21
-23.7
-22.11
-20.89
-20.41
-20.83
-22.13
-24.09
-26.36
-28.54
-30.16
-30.9
-30.56
-29.17
-26.95
-24.19
-21.24
-18.39
-15.84
-13.69
-11.91
-10.41
-9.07
-7.84
-6.8
-6.11
-5.85
-5.94
-6.12
-6.04
-5.41
-4.08
-2.17
0.05
2.23
4.06
5.31
5.87
5.79
5.14
4.16
3.13
2.31
1.85
1.76
1.88
1.96
1.81
1.27
0.38
-0.69
-1.64
-2.18
-2.07
-1.26
0.09
1.7
3.2
4.34
5.03
5.32
5.35
5.23
5.03
4.77
4.55
4.47
4.65
4.99
5.22
5.03
4.19
2.88
1.59
1.05
1.83
4.14
7.71
11.81
15.49
17.79
17.96
15.66
11.02
4.65
-2.5
-9.42
-15.36
-19.83
-22.77
-24.28
-24.57
-23.95
-22.82
-21.62
-20.73
-20.2
-19.61
-18.19
-15.03
-9.41
-1.06
9.82
22.53
36.09
49.27
60.8
69.45
74.37
75.31
72.65
67.33
60.42
52.78
44.79
36.39
27.31
17.47
7.23
-2.66
-11.21
-17.64
-21.7
-23.85
-25.06
-26.41
-28.61
-31.68
-34.95
-37.3
-37.69
-35.42
-30.28
-22.45
-12.33
-0.4
12.85
26.87
41
54.49
66.37
75.53
80.85
81.45
77.19
69.1
59.46
51.59
48.83
53.43
65.62
83.34
102.64
118.71
127.15
125.04
111.86
89.74
62.93
36.68
15.52
2
-3.91
-4.28
-1.93
0.87
3.08
4.69
5.91
6.53
5.77
2.85
-2.39
-9.08
-15.66
-20.77
-23.93
-25.79
-27.79
-31.37
-37.35
-45.87
-56.72
-69.79
-84.87
-101.13
-116.47
-127.58
-130.85
-123.96
-107.14
-83.23
-56.65
-31.56
-10.61
5.33
16.65
24.05
28.1
29.42
29.06
28.62
29.93
34.33
42.03
52.01
62.37
71.01
76.36
77.85
75.96
71.84
66.59
60.66
53.61
44.37
32.03
16.44
-1.37
-19.6
-36.26
-49.74
-59.16
-64.25
-65.27
-62.8
-57.76
-51.31
-44.63
-38.49
-32.89
-27.08
-19.72
-9.65
3.53
19.12
35.5
50.7
63.16
72.33
78.71
83.59
88.22
93.33
98.81
103.96
108.02
110.5
111.23
109.8
105.3
96.08
80.27
56.55
24.69
-14.35
-59.11
-108.13
-160.17
-213.57
-265.48
-311.58
-346.72
-366.67
-369.6
-356.9
-332.47
-301.23
-267.47
-233.95
-202.06
-172.28
-144.93
-120.23
-98.25
-78.78
-61.32
-45.42
-30.92
-18.16
-7.73
-0.52
2.77
1.81
-3.22
-11.57
-22.24
-34.35
-47.53
-61.96
-78.11
-96.19
-115.66
-134.95
-151.6
-162.55
-164.61
-155.18
-132.94
-98.53
-54.71
-5.75
43.7
89.97
131
166.24
195.61
218.62
234.11
240.81
238.59
229.03
215.25
200.7
187.77
176.94
167.05
156.32
143.55
128.89
113.64
99.52
87.85
79.01
72.53
67.45
62.92
58.36
53.56
48.52
43.24
37.77
32.18
26.7
21.71
17.66
14.85
13.33
12.84
12.77
12.42
11.12
8.5
4.65
0.08
-4.45
-8.18
-10.68
-11.93
-12.14
-11.67
-10.76
-9.55
-8.2
-6.91
-5.97
-5.54
-5.53
-5.54
-5
-3.47
-0.8
2.64
6.22
9.26
11.47
13.03
14.63
17.08
20.88
25.96
31.66
37.05
41.45
44.83
47.87
51.75
57.62
66.3
78.12
92.93
110.16
128.66
146.5
161.02
169.19
168.42
157.28
135.93
105.56
67.63
23.03
-27.94
-84.72
-145.34
-205.59
-259.45
-300.5
-323.98
-328.24
-315.07
-288.71
-254.36
-216.66
-178.99
-143.47
-111.32
-83.23
-59.53
-40.02
-23.98
-10.28
2.24
14.4
26.23
36.98
45.31
49.91
50.05
46.04
39.33
32.05
26.38
23.72
24.31
27.21
30.78
33.35
33.81
31.95
28.34
24.03
20.1
17.35
16.07
16.13
17.09
18.31
19.23
19.36
18.44
16.45
13.6
10.31
7.04
4.29
2.4
1.58
1.77
2.78
4.31
6.08
7.87
9.51
10.86
11.75
12.09
11.87
11.24
10.45
9.7
9.04
8.33
7.34
5.93
4.12
2.11
0.13
-1.73
-3.61
-5.76
-8.43
-11.67
-15.31
-19.07
-22.67
-26.04
-29.2
-32.26
-35.22
-37.93
-40.13
-41.56
-42.09
-41.75
-40.69
-39.07
-37.06
-34.77
-32.27
-29.47
-26.15
-22.01
-16.86
-10.95
-4.96
0.09
3.3
4.38
3.75
2.43
1.53
1.79
3.33
5.76
8.51
11.13
13.49
15.63
17.7
19.72
21.66
23.41
24.88
26.08
27.01
27.72
28.12
28.17
27.8
27.08
26.13
25.13
24.17
23.19
22.08
20.7
19.04
17.25
15.5
13.93
12.46
11
9.34
7.47
5.54
3.82
2.52
1.69
1.23
0.91
0.59
0.21
-0.07
-0.1
0.19
0.73
1.29
1.75
2.14
2.68
3.51
4.49
5.09
4.5
2.09
-2.26
-7.96
-13.93
-19
-22.38
-23.87
-23.78
-22.62
-20.85
-18.77
-16.56
-14.41
-12.52
-11.04
-10.01
-9.26
-8.5
-7.37
-5.67
-3.33
-0.58
2.16
4.48
6
6.66
6.7
6.69
7.32
9.19
12.56
17.16
22.25
26.81
29.89
30.96
30.14
28.13
25.94
24.48
24.22
25.16
26.87
28.89
30.83
32.52
33.91
35
35.69
35.86
35.39
34.16
32.16
29.39
25.95
21.98
17.67
13.21
8.72
4.32
0.09
-3.86
-7.44
-10.61
-13.48
-16.35
-19.6
-23.5
-28.05
-32.84
-37.16
-40.17
-41.24
-40.17
-37.28
-33.28
-29.07
-25.4
-22.7
-21.05
-20.21
-19.83
-19.57
-19.23
-18.67
-17.81
-16.59
-14.93
-12.83
-10.31
-7.59
-4.91
-2.59
-0.81
0.42
1.21
1.76
2.2
2.54
2.7
2.62
2.29
1.89
1.62
1.61
1.88
2.32
2.89
3.6
4.55
5.79
7.24
8.63
9.64
10.06
9.9
9.43
8.99
8.9
9.17
9.61
9.87
9.57
8.6
7.04
5.3
3.8
2.94
2.85
3.33
3.98
4.32
4.16
3.63
3.21
3.51
4.89
7.3
10.16
12.63
13.93
13.75
12.33
10.4
8.86
8.43
9.49
11.97
15.54
19.62
23.41
25.94
26.26
23.74
18.31
10.71
2.26
-5.48
-11.15
-13.93
-13.58
-10.13
-3.33
7.72
24.67
49.1
81.41
119.69
159.25
193.61
216.17
222.39
210.91
183.62
144.27
96.93
45.06
-8.52
-60.7
-107.57
-144.69
-168.46
-177.74
-174.83
-164.74
-153.08
-143.54
-136.46
-129.3
-118.85
-103.67
-85.38
-67.88
-55.16
-48.97
-48.02
-48.9
-48.25
-44.41
-37.87
-30.41
-23.46
-17.34
-11.25
-4.31
3.62
11.7
18.43
22.62
23.91
23.16
21.92
21.73
23.45
26.89
31.01
34.35
35.89
35.29
33.13
30.39
28.04
26.64
26.28
26.76
27.54
27.82
26.29
21.46
12.18
-1.44
-17.59
-33.23
-45.29
-52.15
-54.29
-53.92
-53.44
-54.13
-55.64
-56.62
-56.04
-54.05
-51.97
-51.28
-52.58
-55.06
-56.98
-56.67
-53.34
-47.43
-40.05
-32.28
-24.58
-16.76
-8.28
1.24
11.55
21.89
31.16
38.43
43.21
45.6
46.16
45.57
44.42
43.03
41.47
39.67
37.57
35.2
32.67
30.14
27.73
25.56
23.64
22
20.64
19.51
18.57
17.69
16.79
15.84
14.92
14.2
13.8
13.71
13.72
13.56
12.99
11.98
10.66
9.31
8.2
7.49
7.23
7.35
7.7
8.09
8.36
8.37
8.08
7.53
6.85
6.19
5.64
5.26
4.93
4.57
4.08
3.46
2.78
2.09
1.42
0.68
-0.2
-1.32
-2.66
-4.08
-5.41
-6.47
-7.23
-7.74
-8.17
-8.67
-9.23
-9.7
-9.81
-9.35
-8.2
-6.54
-4.68
-3.02
-1.81
-1.14
-0.92
-0.96
-1.12
-1.29
-1.45
-1.42
-1.05
-0.13
1.39
3.36
5.42
7.05
7.86
7.7
6.77
5.49
4.38
3.81
3.82
4.29
4.92
5.45
5.74
5.68
5.21
4.27
2.9
1.23
-0.42
-1.72
-2.41
-2.44
-2.04
-1.61
-1.58
-2.22
-3.55
-5.27
-6.91
-7.96
-8.08
-7.25
-5.75
-4.03
-2.48
-1.27
-0.35
0.39
1.01
1.5
1.72
1.75
1.77
2.06
2.88
4.26
6.03
7.82
9.38
10.51
11.2
11.53
11.58
11.43
11.1
10.68
10.22
9.82
9.57
9.53
9.73
10.07
10.39
10.49
10.27
9.82
9.47
9.61
10.54
12.31
14.66
17.2
19.56
21.52
23.03
24.08
24.62
24.5
23.61
21.78
18.98
15.21
10.48
4.86
-1.52
-8.32
-15.06
-20.98
-25.32
-27.47
-27.1
-24.38
-19.87
-14.43
-8.95
-4.14
-0.35
2.29
3.98
5.1
6.15
7.67
10.04
13.17
16.31
18.24
17.63
13.75
6.89
-1.72
-10.46
-18
-23.77
-28.07
-31.54
-34.74
-37.83
-40.63
-42.89
-44.51
-45.64
-46.42
-46.96
-47.06
-46.44
-44.82
-42.09
-38.42
-34.17
-29.85
-25.96
-22.83
-20.52
-18.86
-17.62
-16.55
-15.58
-14.7
-13.96
-13.29
-12.58
-11.75
-10.8
-9.88
-9.1
-8.43
-7.53
-5.91
-3.07
1.14
6.32
11.67
16.17
19.09
20.16
19.75
18.54
17.22
16.24
15.77
15.86
16.55
17.91
19.85
22.04
23.89
24.82
24.57
23.27
21.45
19.63
18.11
16.84
15.54
14.01
12.22
10.41
8.87
7.78
7.1
6.64
6.16
5.53
4.82
4.14
3.69
3.55
3.73
4.09
4.46
4.74
4.89
5
5.13
5.38
5.72
6.09
6.37
6.47
6.4
6.21
6.03
5.91
5.83
5.7
5.34
4.7
3.83
2.91
2.15
1.67
1.43
1.22
0.8
0.03
-1.09
-2.39
-3.73
-4.99
-6.14
-7.13
-7.88
-8.19
-7.88
-6.9
-5.4
-3.64
-1.88
-0.29
1.12
2.36
3.49
4.52
5.5
6.57
7.85
9.47
11.34
13.3
15.03
16.34
17.13
17.52
17.77
18.18
18.94
20.02
21.24
22.26
22.85
22.93
22.64
22.23
21.87
21.57
21.25
20.88
20.59
20.7
21.59
23.42
26.11
29.2
32.11
34.2
35.08
34.54
32.63
29.52
25.27
20.05
14.02
7.58
1.3
-4.3
-9.01
-13.2
-17.6
-22.9
-29.16
-35.48
-40.37
-42.31
-40.55
-35.48
-28.37
-20.69
-13.62
-7.66
-2.95
0.49
2.58
3.16
2.41
0.9
-0.38
-0.48
1.21
4.58
9.02
13.75
18.14
22.06
25.67
29.18
32.47
35.02
36.05
34.9
31.47
26.21
20.09
14.02
8.5
3.38
-2.07
-8.71
-17.33
-28.2
-41.21
-55.76
-70.9
-85.43
-97.98
-107.42
-113.12
-115.23
-114.52
-112.07
-108.75
-105.04
-100.97
-96.41
-91.4
-86.1
-80.68
-75.01
-68.66
-61.11
-52.14
-42.19
-32.26
-23.58
-16.88
-12.19
-8.64
-5.07
-0.62
4.8
10.27
14.45
16.12
15.06
12.03
8.55
6.07
5.21
5.5
5.64
4.32
0.83
-4.45
-10.44
-15.91
-20.08
-22.9
-24.86
-26.65
-28.74
-31.5
-35.1
-39.4
-43.45
-44.95
-40.31
-25.52
2.12
42.19
90.37
139.18
180.25
206.93
216.34
209.66
191.08
165.83
138.61
112.88
90.81
73.74
62.29
56.38
54.92
55.97
57.2
56.49
52.69
45.88
37.17
28.19
20.49
14.96
11.69
9.99
8.7
6.78
3.64
-0.56
-5.04
-8.77
-11.05
-11.76
-11.4
-10.91
-11.04
-12.18
-14.13
-16.38
-18.28
-19.36
-19.49
-18.82
-17.71
-16.49
-15.41
-14.54
-13.72
-12.76
-11.45
-9.71
-7.65
-5.53
-3.66
-2.37
-1.86
-2.17
-3.18
-4.6
-6.08
-7.2
-7.67
-7.32
-6.18
-4.46
-2.51
-0.78
0.34
0.58
-0.04
-1.21
-2.42
-3.15
-3.13
-2.41
-1.39
-0.56
-0.32
-0.79
-1.84
-3.19
-4.55
-5.73
-6.58
-7.09
-7.24
-7.16
-6.98
-6.88
-7.03
-7.46
-8.14
-8.87
-9.51
-9.91
-9.99
-9.77
-9.27
-8.62
-7.93
-7.33
-6.93
-6.75
-6.77
-6.88
-7.02
-7.14
-7.29
-7.49
-7.69
-7.79
-7.6
-7.11
-6.36
-5.59
-5.02
-4.81
-4.91
-5.15
-5.28
-5.14
-4.77
-4.36
-4.19
-4.43
-5.1
-5.98
-6.78
-7.21
-7.19
-6.85
-6.45
-6.29
-6.51
-7.08
-7.83
-8.46
-8.76
-8.57
-7.9
-6.8
-5.45
-4.01
-2.65
-1.56
-0.87
-0.73
-1.11
-1.9
-2.87
-3.82
-4.61
-5.25
-5.93
-6.79
-7.9
-9.13
-10.24
-10.96
-11.12
-10.72
-9.84
-8.73
-7.58
-6.6
-5.91
-5.56
-5.47
-5.53
-5.64
-5.73
-5.78
-5.79
-5.79
-5.84
-5.92
-6.07
-6.28
-6.59
-6.94
-7.34
-7.73
-8.04
-8.24
-8.22
-7.98
-7.48
-6.84
-6.13
-5.44
-4.78
-4.12
-3.41
-2.58
-1.63
-0.55
0.55
1.64
2.61
3.35
3.79
3.83
3.46
2.72
1.74
0.73
-0.11
-0.62
-0.79
-0.69
-0.54
-0.49
-0.66
-1.03
-1.49
-1.88
-2.07
-2.08
-1.95
-1.83
-1.78
-1.83
-1.98
-2.19
-2.55
-3.11
-3.95
-4.95
-5.92
-6.57
-6.65
-6.09
-5.03
-3.79
-2.64
-1.76
-1.1
-0.46
0.33
1.32
2.31
2.95
2.84
1.82
-0.02
-2.26
-4.41
-6.09
-7.2
-7.98
-8.81
-10.11
-12.07
-14.59
-17.37
-19.93
-21.84
-22.58
-21.75
-18.91
-13.84
-6.59
2.3
11.84
20.83
28.15
33.19
35.71
35.72
33.11
27.43
18.27
5.72
-9.01
-23.54
-34.69
-39.58
-36.63
-26.19
-10.49
7.05
22.65
32.98
35.63
29.53
15.12
-5.55
-29.08
-51.45
-68.95
-79.18
-81.5
-76.95
-67.63
-56.03
-44.52
-34.91
-28.41
-25.29
-24.87
-25.44
-24.86
-21.24
-13.69
-2.71
10.19
23.09
34.43
43.43
49.99
54.48
57.36
59.15
60.31
61.35
62.63
64.19
65.67
66.43
65.97
64.21
61.66
59.03
56.82
55
53.13
50.91
48.6
47.26
48.42
53.66
64.12
80.42
102.71
130.62
163.17
198.41
233.36
264.25
287.41
300.33
302.42
295.11
281.27
264.14
246.34
229.33
213.37
198.01
182.49
166.19
148.81
130.26
110.65
90.16
69.28
48.8
29.82
13.62
1.23
-6.72
-10.25
-9.9
-6.44
-0.63
7.03
16.23
26.73
38.08
49.5
59.84
67.88
72.66
73.78
71.5
66.62
60.03
52.4
43.84
33.95
22.1
7.85
-8.69
-26.81
-45.29
-62.83
-78.46
-91.72
-102.85
-112.72
-122.74
-134.45
-148.88
-165.75
-182.99
-196.9
-203.2
-198.65
-182.56
-157.41
-128.42
-102.03
-84.04
-78.18
-85.46
-104.5
-132.25
-164.88
-198.4
-229.16
-254.16
-271.47
-280.49
-282.11
-278.36
-271.81
-264.74
-258.3
-252.42
-246.05
-238
-227.6
-215.08
-201.4
-187.85
-175.49
-164.9
-156.08
-148.43
-140.92
-132.23
-121.05
-106.69
-89.55
-71.2
-53.97
-39.92
-29.88
-22.95
-16.92
-9.32
1.47
15.64
32.2
49.67
66.86
83.18
98.54
112.85
125.88
137.06
145.76
151.47
153.96
153.41
150.6
147.03
144.78
145.7
150.54
158.13
165.57
169.31
166.88
157.85
143.71
126.49
107.87
89.06
71.51
57.61
50.24
51.1
59.05
69.65
77.05
76.83
68.11
53.14
34.72
13.63
-11.58
-43.01
-79.74
-116.53
-145.67
-160.78
-159.64
-144.31
-119.16
-88.92
-57.98
-29.74
-6.76
9.19
17.54
19.37
17.34
14.88
15.1
19.28
28.7
44.77
67.99
96.21
124.43
146.8
159.47
162.61
156.53
144.6
131.3
119.27
106.96
89.66
62.68
23.97
-24.99
-87.8
-164.11
-248.63
-334.02
-416.05
-494.89
-572.48
-649.35
-723.28
-801.34
-884.03
-962.44
-1022.49
-1054.36
-1056.97
-1036.79
-1004.27
-970.45
-958.43
-977.85
-1018.37
-1055.66
-1066.76
-1039.77
-974.75
-879.22
-668.89
-323.61
103.16
516.45
845.03
1065.13
1184.41
1223.54
1207.84
1162.76
1095.09
1011.83
924.26
845.97
782.98
734.99
698.63
670.9
649.63
621.59
579.14
524.62
467.66
416.76
375.35
342.4
317.11
297.56
274.55
242.95
204.39
165.4
131.64
105.41
86.24
72.45
62.04
49.72
32.37
10.47
-12.71
-33.79
-50.47
-61.67
-67.09
-67.36
-65.01
-62.29
-60.4
-59.22
-58.29
-56.99
-54.78
-51.21
-46.19
-39.87
-32.53
-24.52
-16
-6.93
2.7
12.72
22.59
31.48
38.58
43.44
46.1
46.95
46.61
45.59
44.22
42.55
40.41
37.5
33.39
27.74
20.44
11.96
3.62
-2.6
-4.53
-0.62
9.24
23.48
39.11
52.75
61.74
64.98
63.15
58.14
52.18
47.06
43.62
41.93
41.46
41.47
41.07
39.34
35.49
28.94
19.71
8.41
-3.91
-16.11
-27.36
-37.32
-46.05
-53.74
-60.58
-66.58
-71.79
-76.34
-80.39
-84.01
-86.94
-88.63
-88.53
-86.42
-82.58
-77.74
-72.66
-67.77
-62.97
-57.84
-51.9
-45.04
-37.68
-30.51
-24.29
-19.41
-15.92
-13.64
-12.32
-11.84
-12.22
-13.48
-15.61
-18.41
-21.61
-24.82
-27.71
-29.99
-31.55
-32.36
-32.55
-32.24
-31.57
-30.65
-29.53
-28.27
-26.92
-25.49
-23.95
-22.26
-20.46
-18.67
-17.15
-16.18
-15.92
-16.23
-16.8
-17.17
-16.93
-15.93
-14.17
-11.89
-9.27
-6.53
-3.66
-0.61
2.71
6.4
10.35
14.36
18.14
21.51
24.41
26.95
29.26
31.39
33.26
34.68
35.43
35.39
34.53
32.98
30.91
28.61
26.44
24.79
23.98
24.14
25.12
26.61
28.12
29.24
29.73
29.53
28.73
27.45
25.79
23.78
21.41
18.75
15.95
13.24
10.82
8.8
7.13
5.66
4.3
2.96
1.68
0.53
-0.52
-1.58
-2.87
-4.49
-6.49
-8.69
-10.88
-12.8
-14.3
-15.34
-15.96
-16.26
-16.41
-16.67
-17.3
-18.5
-20.11
-21.55
-21.83
-19.83
-14.76
-6.58
3.84
14.97
25.12
33.05
38.25
40.98
41.89
41.65
40.7
39.14
37.05
34.69
32.48
30.94
30.36
30.64
31.31
31.74
31.54
30.64
29.29
27.92
26.8
25.99
25.31
24.45
23.18
21.41
19.16
16.65
14.05
11.56
9.34
7.47
5.91
4.54
3.12
1.41
-0.79
-3.48
-6.41
-9.1
-10.88
-11.22
-9.84
-6.91
-3.03
1.06
4.65
7.33
8.96
9.67
9.66
9.09
8.06
6.64
4.94
3.17
1.59
0.44
-0.14
-0.13
0.26
0.78
1.15
1.19
0.87
0.26
-0.49
-1.25
-1.95
-2.5
-2.79
-2.78
-2.44
-1.94
-1.45
-1.15
-1.18
-1.56
-2.3
-3.32
-4.5
-5.54
-6.01
-5.44
-3.49
-0.17
4.19
8.96
13.59
17.69
21.19
24.19
26.69
28.57
29.46
29.04
27.25
24.45
21.47
19.21
18.4
19.12
20.71
21.96
21.71
19.26
14.61
8.38
1.53
-4.97
-10.43
-14.75
-18.34
-21.81
-25.67
-30.19
-35.12
-39.8
-43.29
-44.63
-43.35
-39.32
-32.42
-22.56
-9.97
4.59
20.09
36.02
53.07
72.34
95.23
122.29
152.02
180.11
200.59
208.22
200.94
180.69
150.88
116.11
81.28
50.85
27.73
12.95
6.11
5.84
10.09
13.68
11.81
2.43
-12.91
-30.82
-47.94
-61.79
-71.02
-75.49
-80.08
-90.45
-110.27
-139.84
-177.79
-222.62
-273.08
-327.99
-365.2
-368.14
-336.31
-285.61
-233.48
-189.08
-154.41
-128.16
-107.89
-90.73
-77.9
-70.64
-68.17
-67.33
-64.88
-59.26
-50.36
-40.57
-28.52
-16.32
-6.17
1.13
6.65
11.76
16.83
21.64
26.18
31.02
34.56
35.15
32.15
26.42
19.69
13.91
9.35
6.97
7.83
11.32
16.38
22.34
29.26
37.63
47.81
59.75
73.09
86.88
98.94
106.78
108.42
102.96
90.92
73.89
54.04
33.44
13.22
-6.66
-26.78
-47.34
-67.58
-85.97
-100.69
-110.57
-115.38
-115.77
-112.69
-106.88
-98.93
-89.91
-81.81
-77.2
-78.22
-85.15
-95.95
-106.84
-114
-115.22
-110.73
-102.67
-93.62
-85.29
-77.83
-70.47
-62.46
-53.87
-45.58
-38.62
-33.57
-30.11
-27.37
-24.29
-20.03
-14.41
-7.84
-1.25
4.23
7.47
7.81
5.25
0.56
-4.92
-9.74
-12.75
-13.53
-12.36
-9.98
-7.07
-3.97
-0.54
3.65
8.84
14.94
21.38
27.49
32.77
37.37
41.98
47.64
55.18
64.81
76.02
87.88
99.49
110.46
121.05
131.93
143.83
157.32
172.73
190.35
210.16
231.57
252.91
271.4
283.85
287.68
282.08
268.25
248.96
227.23
205.36
184.41
164.55
145.85
128.68
113.87
102.14
93.72
87.96
83.65
79.43
74.3
67.89
60.48
52.75
45.44
39.05
33.71
29.17
25.08
21.06
16.97
12.81
8.77
4.99
1.58
-1.51
-4.42
-7.27
-10.14
-12.92
-15.4
-17.34
-18.61
-19.3
-19.63
-19.97
-20.56
-21.49
-22.59
-23.61
-24.33
-24.66
-24.77
-24.89
-25.36
-26.39
-28.09
-30.41
-33.12
-35.85
-38.06
-39.19
-38.74
-36.49
-32.58
-27.53
-22.13
-17.13
-13.18
-10.51
-9.13
-8.7
-8.78
-8.86
-8.5
-7.51
-5.9
-3.97
-2.09
-0.62
0.33
0.87
1.2
1.58
2.04
2.51
2.78
2.77
2.52
2.13
1.77
1.43
1.08
0.62
0.11
-0.33
-0.54
-0.46
-0.31
-0.45
-1.33
-3.13
-5.83
-9.08
-12.47
-15.62
-18.3
-20.45
-22.03
-22.98
-23.08
-22.07
-19.63
-15.54
-9.81
-2.76
4.84
11.94
17.4
20.33
20.37
17.73
13.17
7.54
1.63
-4.16
-9.73
-15.29
-21.15
-27.58
-34.86
-43.07
-52.24
-62.2
-72.72
-83.66
-95.1
-107.37
-120.82
-135.49
-150.67
-164.92
-176.18
-182.35
-181.96
-174.56
-160.91
-142.67
-122.1
-101.24
-81.34
-62.3
-42.57
-19.74
8.48
43.09
83.22
126.02
167.45
203.42
230.92
249.02
258.86
263.32
265.88
269.52
275.6
283.48
290.53
293.04
287.59
271.8
245.23
209.32
167.04
122.16
78.24
37.88
2.23
-28.95
-57.07
-84.02
-111.95
-143.07
-179.26
-221.35
-267.93
-314.49
-353.4
-375.57
-373.15
-342.52
-285.85
-210.63
-127.31
-46.19
24.93
81.72
122.96
149.84
165.11
172.53
176.59
181.45
189.89
202.23
216.31
228.41
234.95
234.01
225.88
212.59
196.68
180.2
164.22
149.02
134.5
120.54
107.03
93.75
80.57
67.57
55.4
45.28
38.58
36.28
38.31
43.35
49.09
52.97
52.97
48.04
38.24
24.39
7.69
-10.81
-30.19
-49.78
-68.87
-86.73
-102.55
-115.54
-125.17
-131.23
-133.95
-133.82
-131.52
-127.75
-123.12
-118.2
-113.41
-109.02
-104.94
-100.78
-95.9
-89.79
-82.34
-74.09
-66.06
-59.34
-54.67
-52.09
-50.98
-50.35
-49.27
-47.2
-44.06
-40.27
-36.46
-33.27
-31.11
-30.09
-30.01
-30.53
-31.36
-32.29
-33.33
-34.48
-35.64
-36.48
-36.53
-35.37
-32.85
-29.17
-24.84
-20.51
-16.68
-13.55
-11.06
-8.88
-6.82
-4.81
-3.15
-2.29
-2.73
-4.76
-8.22
-12.62
-17.12
-21
-23.8
-25.64
-27.12
-29.25
-32.99
-38.85
-46.69
-55.58
-64.08
-70.45
-73.14
-71.05
-63.85
-52.4
-38.71
-25.68
-16.26
-12.6
-15.19
-22.78
-32.93
-43.03
-51.44
-57.79
-62.83
-67.57
-72.63
-77.85
-82.56
-86.06
-88.04
-88.73
-88.6
-88.05
-87.22
-85.96
-84.16
-81.81
-79.23
-76.83
-74.89
-73.18
-71.07
-67.69
-62.34
-54.9
-45.89
-36.35
-27.42
-20.03
-14.59
-10.96
-8.6
-6.74
-4.8
-2.45
0.23
2.87
5.03
6.38
6.84
6.55
5.81
4.84
3.79
2.69
1.51
0.22
-1.25
-2.92
-4.9
-7.19
-9.64
-11.85
-13.18
-13
-10.86
-6.75
-1
5.77
12.95
20
26.54
32.14
36.24
38.2
37.51
34.13
28.69
22.55
17.39
14.72
15.35
19.08
24.88
31.35
37.44
42.77
47.65
52.71
58.25
63.99
69.04
72.58
74.27
74.64
74.66
75.22
76.53
77.95
78.45
77.1
73.57
68.14
61.31
53.52
44.84
35.29
25.03
14.65
5.07
-2.76
-8.21
-11.28
-12.38
-12.21
-11.46
-10.65
-10
-9.61
-9.47
-9.49
-9.68
-9.99
-10.44
-10.95
-11.5
-12.08
-12.74
-13.56
-14.49
-15.42
-16.04
-16.09
-15.38
-13.96
-12.08
-10.08
-8.3
-6.99
-6.32
-6.3
-6.88
-7.88
-9.02
-10.07
-10.76
-11.09
-11.1
-10.96
-10.79
-10.57
-10.24
-9.63
-8.7
-7.51
-6.18
-4.83
-3.57
-2.37
-1.18
-0.02
1.05
1.82
2.2
2.14
1.88
1.73
1.99
2.69
3.54
3.99
3.47
1.69
-1.22
-4.65
-7.74
-9.7
-10.05
-8.82
-6.42
-3.47
-0.53
2
4.03
5.66
7.05
8.35
9.57
10.6
11.28
11.55
11.5
11.29
11.21
11.37
11.83
12.46
13.07
13.57
13.96
14.33
14.78
15.38
16.02
16.62
17.08
17.47
17.96
18.7
19.78
21.03
22.2
22.98
23.23
22.95
22.34
21.7
21.17
20.63
19.57
17.22
12.77
5.72
-3.87
-15.31
-27.35
-38.6
-47.79
-54.05
-56.93
-56.37
-52.64
-46.39
-38.67
-30.71
-23.71
-18.37
-14.72
-12.11
-9.53
-6.11
-1.4
4.38
10.64
16.53
21.41
24.86
26.81
27.44
27.01
25.87
24.36
22.82
21.55
20.73
20.45
20.58
20.95
21.36
21.76
22.28
23.19
24.72
26.86
29.35
31.67
33.37
34.16
34.08
33.43
32.64
32.1
32.05
32.47
32.93
32.7
30.65
25.68
17.02
4.66
-10.36
-26.23
-40.68
-51.84
-58.59
-60.99
-59.99
-57.11
-53.89
-51.48
-50.5
-51.1
-53.12
-56.28
-60.24
-64.51
-68.54
-71.7
-73.55
-74.02
-73.6
-73.14
-73.44
-74.81
-76.93
-78.9
-79.81
-79
-76.49
-72.75
-68.69
-65.33
-63.66
-64.42
-67.77
-73.11
-78.87
-82.96
-83.5
-79.64
-71.85
-61.59
-50.44
-39.35
-28.39
-17.17
-5.55
5.81
15.67
22.76
26.54
27.47
26.74
25.58
24.78
24.39
24.03
23.34
22.23
20.89
19.55
18.31
17.1
15.82
14.65
14.22
15.6
20.13
29.03
42.96
61.61
83.7
107.1
129.53
149.08
164.77
176.47
184.57
189.36
190.54
187.14
177.82
161.74
139.06
111.36
81.36
52.21
26.59
5.95
-9.59
-21.05
-29.69
-36.41
-41.44
-44.56
-45.67
-45.2
-44.2
-43.83
-44.97
-47.75
-51.65
-55.86
-59.56
-62.25
-63.66
-63.77
-62.53
-59.94
-56.02
-50.86
-44.62
-37.56
-30.04
-22.48
-15.29
-8.72
-2.69
3.07
8.97
15.19
21.56
27.51
32.33
35.53
37.02
37.05
35.86
33.51
29.77
24.35
17.27
9.01
0.44
-7.6
-14.68
-20.92
-26.94
-33.38
-40.62
-48.6
-56.94
-65.24
-73.33
-81.3
-89.43
-97.89
-106.6
-114.97
-121.96
-126.11
-125.88
-120.06
-108.14
-90.64
-68.99
-45.2
-21.16
1.97
23.93
45.21
66.36
87.42
107.58
125.42
139.52
149.01
153.91
154.86
152.65
147.65
139.82
128.98
115.3
99.71
83.75
69.14
57.18
48.37
42.28
38.02
34.67
31.65
28.81
26.22
23.92
21.67
19.03
15.55
11.01
5.61
-0.15
-5.55
-9.97
-13.12
-15.03
-15.94
-16.13
-15.83
-15.14
-14.15
-12.96
-11.73
-10.54
-9.42
-8.33
-7.24
-6.25
-5.48
-4.95
-4.43
-3.49
-1.71
1.03
4.41
7.84
10.67
12.67
14.04
15.32
17.07
19.48
22.31
25.02
27.06
28.13
28.31
27.89
27.23
26.51
25.67
24.55
22.88
20.55
17.59
14.19
10.62
7.2
4.26
2
0.53
-0.32
-0.91
-1.72
-3.19
-5.44
-8.28
-11.12
-13.3
-14.29
-13.96
-12.57
-10.69
-8.94
-7.73
-7.13
-6.86
-6.56
-5.89
-4.84
-3.61
-2.47
-1.71
-1.35
-1.31
-1.41
-1.48
-1.42
-1.11
-0.44
0.77
2.59
5.02
7.82
10.63
13.06
14.79
15.65
15.59
14.68
13.07
11.03
8.88
6.86
5.09
3.46
1.73
-0.34
-2.71
-5.17
-7.23
-8.45
-8.53
-7.34
-5.16
-2.52
-0.32
0.5
-0.87
-4.7
-10.61
-17.64
-24.59
-30.45
-34.55
-36.72
-37.06
-35.79
-33.2
-29.61
-25.47
-21.33
-17.69
-14.8
-12.64
-10.86
-8.96
-6.51
-3.23
0.82
5.45
10.32
15.21
20.01
24.67
29.11
33.1
36.28
38.17
38.42
36.85
33.72
29.54
24.87
20.07
14.99
9.2
2.13
-6.32
-15.59
-24.45
-31.32
-35
-35.05
-32.1
-27.47
-22.67
-18.77
-16.1
-14.37
-12.98
-11.37
-9.24
-6.61
-3.6
-0.42
2.73
5.57
7.65
8.41
7.35
4.38
-0.12
-5.28
-10.05
-13.57
-15.34
-15.43
-14.24
-12.4
-10.46
-8.83
-7.71
-7.23
-7.62
-9.15
-12.07
-16.39
-21.64
-26.92
-31.01
-32.78
-31.5
-27.14
-20.27
-11.99
-3.52
4
9.67
13.03
13.98
12.85
10.27
7.07
3.99
1.52
-0.02
-0.61
-0.32
0.63
2.01
3.5
4.81
5.67
5.9
5.43
4.24
2.38
-0.1
-3.04
-6.27
-9.5
-12.43
-14.97
-17.07
-18.95
-20.83
-22.95
-25.44
-28.31
-31.49
-34.75
-37.72
-39.95
-41.07
-40.95
-39.89
-38.6
-37.97
-38.71
-40.99
-44.41
-48.07
-51.08
-52.76
-53.01
-52.11
-50.55
-48.71
-46.62
-44.11
-40.91
-37
-32.73
-28.78
-26
-24.95
-25.59
-27.15
-28.13
-26.86
-22.1
-13.73
-2.91
7.99
16.31
19.86
17.83
11.02
1.57
-7.95
-15.38
-19.63
-20.97
-20.67
-20.36
-21.31
-23.82
-26.82
-28.23
-25.64
-17.21
-2.72
15.88
34.57
48.28
52.42
44.47
25.05
-2.33
-32.3
-59.55
-80.38
-93.56
-100.18
-102.71
-103.91
-105.86
-109.49
-114.44
-119.24
-121.7
-119.4
-110.5
-94.17
-71.14
-43.38
-13.7
15.01
40.22
60.1
73.73
80.91
82.36
79.5
74.33
68.94
65.04
63.54
64.33
66.59
69.06
70.71
70.97
69.83
67.67
64.88
61.72
58.25
54.54
50.78
47.43
44.96
43.77
43.89
45.02
46.77
48.81
51.14
54.04
57.96
63.23
69.81
77.3
84.91
91.68
96.79
99.98
101.82
103.64
107.06
113.06
121.21
129.52
135.14
135.5
129.46
117.51
101.35
82.88
63.38
43.56
23.91
5.45
-10.17
-21.11
-26.21
-25.64
-20.91
-14.36
-8.25
-4.18
-2.71
-3.52
-5.75
-8.26
-10.06
-10.39
-8.86
-5.34
0.12
7.35
16.18
26.35
37.6
49.65
62.4
75.95
90.56
106.34
122.83
138.83
152.53
162.24
166.95
166.87
163.13
157.29
150.58
143.5
136.05
127.99
119.37
110.52
101.89
93.8
86.28
79.32
72.92
67.42
63.33
61.09
60.72
61.61
62.45
61.54
57.43
49.4
37.89
24.27
10.28
-2.75
-14.39
-25.04
-35.55
-46.39
-57.52
-68.23
-77.74
-85.67
-92.23
-98.26
-104.7
-112.35
-121.34
-131.19
-140.86
-149.07
-154.63
-156.7
-155.01
-149.8
-141.78
-131.83
-120.97
-109.99
-99.42
-89.41
-79.72
-70.03
-60.09
-50.13
-40.75
-32.79
-26.94
-23.38
-21.8
-21.4
-21.29
-20.68
-19.05
-16.11
-11.77
-6.24
0.05
6.41
12.27
17.32
21.75
26.15
31.12
36.9
43.09
48.82
53.04
55.13
55.13
53.76
52.24
51.74
53.18
56.87
62.58
69.47
76.26
81.48
83.7
81.91
75.7
65.36
51.73
36.01
19.44
3.08
-12.28
-26.29
-38.89
-50.37
-61.14
-71.55
-81.73
-91.45
-100.23
-107.41
-112.49
-115.22
-115.7
-114.33
-111.69
-108.44
-105.09
-101.98
-99.24
-96.86
-94.77
-92.9
-91.19
-89.52
-87.73
-85.61
-83.03
-79.88
-76.25
-72.32
-68.37
-64.75
-61.8
-59.8
-58.82
-58.79
-59.36
-60.08
-60.46
-60.23
-59.38
-58.15
-56.92
-56.05
-55.72
-55.96
-56.65
-57.75
-59.24
-61.23
-63.74
-66.64
-69.58
-71.98
-73.28
-72.95
-70.69
-66.39
-60.23
-52.54
-43.89
-34.98
-26.53
-19.19
-13.27
-8.83
-5.54
-2.94
-0.43
2.56
6.61
12.24
19.73
29
39.31
49.45
57.95
63.6
65.82
64.83
61.49
56.78
51.55
46.26
41.09
36.23
31.94
28.57
26.27
24.89
23.83
22.37
19.85
16.05
11.23
5.92
0.79
-3.74
-7.35
-9.89
-11.08
-10.68
-8.59
-5.08
-0.93
2.93
5.58
6.67
6.4
5.44
4.54
4.16
4.46
5.29
6.53
8.08
10.01
12.3
14.77
17.19
19.14
20.47
21.13
21.37
21.53
21.93
22.8
24.22
26.24
28.84
32.08
35.9
40.17
44.55
48.58
51.83
53.94
54.88
54.83
54.18
53.3
52.58
52.35
52.88
54.51
57.36
61.38
66.08
70.82
74.94
77.95
79.76
80.2
79.04
75.51
68.77
58.17
43.87
26.97
9.23
-7.46
-21.87
-33.48
-42.55
-49.57
-54.97
-58.99
-61.72
-63.41
-64.34
-64.91
-65.32
-65.65
-65.76
-65.57
-65.11
-64.54
-64.09
-63.82
-63.64
-63.21
-62.21
-60.43
-57.89
-54.96
-52.12
-49.87
-48.38
-47.44
-46.4
-44.41
-40.69
-34.79
-26.87
-17.54
-7.8
1.37
9.23
15.36
19.79
22.67
24.29
24.85
24.58
23.71
22.55
21.47
20.67
20.23
19.98
19.69
19.13
18.27
17.32
16.54
16.19
16.26
16.63
17.11
17.56
17.99
18.45
18.96
19.39
19.57
19.36
18.78
18.03
17.32
16.78
16.22
15.29
13.65
11.31
8.72
6.86
6.86
9.6
15.37
23.71
33.58
43.64
52.84
60.53
66.71
71.77
76.2
80.38
84.35
87.96
90.87
92.84
93.71
93.52
92.42
90.54
88.11
85.26
82.2
79.14
76.22
73.46
70.61
67.16
62.37
55.62
46.49
35.06
21.89
7.83
-6.12
-19.19
-30.96
-41.41
-50.78
-59.44
-67.66
-75.55
-83.21
-90.66
-98.01
-105.25
-112.14
-118.09
-122.34
-124.1
-122.97
-119.18
-113.51
-107.11
-100.91
-95.55
-91.06
-87.18
-83.64
-80.42
-77.74
-75.81
-74.59
-73.62
-72.27
-70
-66.68
-62.63
-58.35
-54.2
-50.13
-45.8
-40.84
-35.2
-29.18
-23.37
-18.34
-14.39
-11.56
-9.64
-8.42
-7.76
-7.57
-7.89
-8.65
-9.71
-10.78
-11.47
-11.51
-10.78
-9.6
-8.5
-8.15
-8.81
-10.22
-11.35
-10.78
-7.12
0.56
12.4
28.05
46.8
67.88
90.35
112.92
133.76
150.6
161.17
163.63
156.99
141.03
116.15
83.13
43.12
-2.02
-49.58
-95.96
-137.14
-169.62
-191.19
-201.49
-201.89
-194.91
-183.26
-169.27
-154.42
-139.47
-124.69
-110.2
-96
-82.03
-68.17
-54.24
-40.26
-26.56
-13.77
-2.61
6.51
13.62
19.28
24.2
28.95
33.66
38
41.55
43.9
45.15
45.76
46.47
47.89
50.3
53.41
56.44
58.42
58.46
56.13
51.64
45.79
39.67
34.34
30.43
28.05
26.85
26.16
25.43
24.17
22.15
19.21
15.25
10.28
4.41
-1.92
-8.13
-13.53
-17.67
-20.49
-22.35
-23.91
-25.7
-27.96
-30.47
-32.69
-33.95
-33.68
-31.6
-27.74
-22.44
-16.18
-9.46
-2.62
4.25
11.24
18.45
25.81
32.93
39.18
43.99
47.23
49.33
51.15
53.5
56.66
60.13
62.97
64.21
63.57
61.44
58.74
56.28
54.32
52.57
50.38
47.29
43.3
38.89
34.71
31.21
28.54
26.34
23.99
20.72
15.91
9.32
1.38
-6.83
-13.84
-18.31
-19.48
-17.48
-13.21
-7.88
-2.56
2.06
5.65
8.04
9.08
8.64
6.78
3.91
0.73
-1.98
-3.66
-4.19
-3.94
-3.53
-3.51
-4.09
-5.12
-6.16
-6.77
-6.73
-6.1
-5.2
-4.32
-3.64
-3.14
-2.63
-1.99
-1.19
-0.32
0.47
1.07
1.43
1.44
0.88
-0.57
-3.21
-7.15
-12.15
-17.58
-22.64
-26.56
-28.77
-29.12
-27.76
-25.19
-21.98
-18.75
-15.93
-13.79
-12.3
-11.2
-10.14
-8.72
-6.73
-4.11
-0.96
2.42
5.7
8.49
10.61
12.04
13.03
13.91
14.96
16.19
17.29
17.81
17.34
15.85
13.61
11.16
8.95
7.14
5.55
3.8
1.6
-1.08
-3.99
-6.76
-9.07
-10.76
-11.85
-12.41
-12.54
-12.29
-11.77
-11.19
-10.79
-10.74
-10.94
-11
-10.3
-8.35
-4.99
-0.58
4.18
8.42
11.56
13.45
14.31
14.63
14.79
15.03
15.41
15.86
16.39
17.06
17.95
19.02
20.11
20.95
21.34
21.23
20.73
20.04
19.29
18.52
17.66
16.7
15.71
14.84
14.19
13.65
13.03
12.06
10.69
9.06
7.54
6.43
5.89
5.83
5.96
6
5.69
4.85
3.38
1.25
-1.43
-4.42
-7.28
-9.56
-10.79
-10.74
-9.31
-6.64
-3.05
0.96
4.82
7.96
9.98
10.82
10.72
10.17
9.73
9.76
10.39
11.39
12.34
12.86
12.79
12.37
12.08
12.51
14.02
16.66
20.04
23.63
26.97
29.86
32.34
34.52
36.39
37.66
37.93
36.86
34.56
31.62
28.99
27.69
28.36
31.21
35.87
41.65
47.31
51
50.1
41.62
23.41
-4.61
-39.49
-75.84
-107.46
-129.66
-140.89
-142.61
-138.01
-129.89
-119.44
-106.32
-89.81
-70.14
-48.96
-28.92
-12.33
-0.23
7.92
13.72
18.92
24.6
30.87
37.11
42.46
46.32
48.45
48.93
47.76
44.59
38.69
29.19
15.72
-1.21
-19.89
-37.89
-52.68
-62.45
-66.68
-66.24
-62.89
-58.52
-54.48
-51.01
-47.46
-42.64
-35.56
-25.92
-14.21
-1.46
11.28
23.26
34.23
44.27
53.46
61.73
68.78
74.31
78.23
80.7
82.08
82.78
83.14
83.48
84.21
85.78
88.57
92.64
97.58
102.48
106.13
107.51
106.06
102.05
96.47
90.82
86.59
84.79
85.65
88.46
91.98
94.83
96.06
95.3
92.77
88.85
83.67
76.99
68.35
57.59
45.3
32.93
22.41
15.35
12.23
12.02
12.71
12.19
9.28
4.15
-1.92
-7.41
-11.46
-14.14
-16.24
-18.47
-20.9
-22.78
-22.99
-20.74
-16.05
-9.9
-3.66
1.44
4.95
7.29
9.56
13.12
19.04
28
40.02
54.46
69.69
83.17
91.73
92.57
84.43
68.28
47.38
26.02
8.12
-4.2
-10.94
-13.62
-14.14
-13.69
-12.49
-9.87
-5.1
2.2
11.74
22.59
33.36
42.25
47.37
46.86
39.54
25.28
5.28
-17.99
-41.47
-62.26
-78.47
-89.52
-96.08
-99.43
-100.9
-101.48
-101.68
-101.78
-101.89
-102.13
-102.44
-102.61
-102.33
-101.28
-99.41
-96.9
-94.29
-92.08
-90.65
-89.98
-89.73
-89.29
-88.17
-86.26
-83.76
-81.2
-79.11
-77.8
-77.22
-76.95
-76.44
-75.16
-72.84
-69.51
-65.43
-60.96
-56.52
-52.47
-49.06
-46.49
-44.75
-43.7
-42.95
-42
-40.41
-37.95
-34.82
-31.41
-28.32
-25.83
-24
-22.52
-21.01
-19.21
-17.09
-14.91
-12.92
-11.35
-10.15
-9.19
-8.26
-7.26
-6.21
-5.27
-4.64
-4.38
-4.53
-4.97
-5.52
-5.97
-6
-5.32
-3.52
-0.39
4.08
9.49
15.11
20.15
23.94
26.26
27.22
27.23
26.61
25.54
24.07
22.17
19.94
17.5
15.02
12.57
10.21
7.95
5.92
4.29
3.16
2.47
1.9
1.1
-0.28
-2.27
-4.7
-7.23
-9.52
-11.45
-13.05
-14.54
-16.11
-17.94
-20.05
-22.34
-24.58
-26.38
-27.31
-26.93
-25.06
-21.84
-17.86
-14.03
-11.33
-10.52
-11.83
-15.01
-19.37
-24.15
-28.74
-32.93
-36.9
-41.14
-46.28
-52.77
-60.67
-69.64
-78.95
-87.83
-95.75
-102.73
-109.36
-116.74
-126.23
-139.15
-156.42
-178.04
-202.75
-227.77
-249.34
-263.59
-267.86
-261.61
-246.59
-226.1
-203.66
-181.9
-161.92
-143.58
-126.15
-108.98
-91.64
-73.82
-55.14
-35.32
-14.61
5.8
23.77
36.85
43.15
42.22
35.45
25.7
16.39
10.53
9.9
14.84
24.43
36.86
49.9
61.28
69.28
73.39
74.68
75.9
80.91
93.49
116.1
148.78
188.86
231.4
270.52
300.76
318.3
321.63
311.65
291.09
263.67
232.86
201.15
169.67
138.64
108.18
79.19
53.4
33.02
19.74
14
14.82
20.38
29.02
39.93
53.24
69.29
87.72
106.94
124.38
137.48
144.78
146.54
144.49
141.02
137.95
136.01
134.75
133.24
130.83
127.55
124.16
121.63
120.85
122.38
126.64
134.04
144.97
159.49
176.88
195.42
212.45
224.92
229.98
225.52
210.4
184.49
148.78
105.35
57.41
8.81
-36.64
-76.05
-108.12
-133.1
-152.26
-166.83
-177.43
-183.87
-185.69
-182.91
-176.54
-168.47
-160.92
-155.72
-153.64
-154.51
-157.4
-161.13
-164.62
-166.99
-167.51
-165.52
-160.41
-151.78
-139.69
-124.78
-108.2
-91.35
-75.4
-61.09
-48.46
-37.22
-27.07
-18.03
-10.49
-4.95
-1.68
-0.47
-0.64
-1.36
-2.07
-2.57
-2.83
-2.63
-1.33
1.88
7.53
15.37
24.26
32.61
39.02
42.94
44.75
45.55
46.45
48.14
50.72
53.77
56.8
59.43
61.48
62.83
63.32
62.68
60.56
56.64
50.76
43.13
34.34
25.39
17.45
11.65
8.72
8.74
11.16
14.93
18.93
22.26
24.58
26.04
27.03
27.88
28.57
28.84
28.29
26.74
24.32
21.36
18.14
14.65
10.64
5.7
-0.42
-7.67
-15.69
-23.99
-32.12
-39.89
-47.42
-55.02
-63.02
-71.58
-80.65
-89.99
-99.18
-107.81
-115.4
-121.42
-125.28
-126.5
-124.96
-120.99
-115.48
-109.42
-103.53
-97.79
-91.5
-83.41
-72.3
-57.48
-39.27
-19.12
0.97
19.11
34.47
47.61
60.34
74.94
92.98
114.43
137.19
157.7
171.94
176.78
170.87
154.9
131.06
102.09
70.34
37.13
2.94
-32.12
-67.51
-101.71
-132.49
-157.64
-175.85
-186.91
-191.46
-190.05
-182.67
-168.74
-147.82
-120.75
-89.99
-59.44
-33.12
-13.9
-2.55
2.22
3
2.61
3.13
5.69
10.58
17.72
26.83
37.56
49.33
61.21
71.97
80.24
84.93
85.57
82.48
76.8
70.1
63.91
59.28
56.53
55.32
55.02
55
54.93
54.68
54.1
52.79
50.04
45.13
37.75
28.38
18.27
9.06
2.26
-1.33
-1.72
0.25
3.3
6.02
7.16
5.92
1.96
-4.39
-12.31
-20.56
-27.82
-33.01
-35.56
-35.47
-33.25
-29.75
-25.92
-22.63
-20.5
-19.79
-20.41
-21.98
-23.97
-25.8
-27.04
-27.43
-26.96
-25.87
-24.54
-23.38
-22.65
-22.4
-22.44
-22.57
-22.63
-22.68
-22.99
-23.89
-25.77
-28.84
-33.15
-38.4
-44.04
-49.39
-53.76
-56.78
-58.42
-59.07
-59.3
-59.67
-60.51
-61.83
-63.44
-65.02
-66.38
-67.42
-68.24
-68.94
-69.56
-70.03
-70.29
-70.45
-70.95
-72.59
-76.2
-82.31
-90.72
-100.29
-109.14
-114.97
-115.76
-110.31
-98.71
-82.47
-64.21
-47.07
-33.69
-25.42
-21.76
-20.74
-19.53
-15.54
-7.16
6.01
23.22
43.05
63.68
83.25
99.98
112.45
119.95
122.61
121.45
117.99
113.78
109.9
106.81
104.37
102.21
99.86
96.92
93.13
88.27
82.36
75.69
68.92
62.77
57.82
54.08
50.93
47.38
42.54
36.17
28.77
21.41
15.19
10.67
7.75
5.86
4.4
3.13
2.26
2.22
3.31
5.45
8.08
10.37
11.57
11.25
9.54
7.08
4.87
3.97
5.19
8.82
14.44
20.94
26.85
30.68
31.54
29.36
24.86
19.29
13.75
8.89
4.69
0.71
-3.52
-8.28
-13.5
-18.9
-24.01
-28.28
-30.93
-31.13
-28.2
-21.98
-13.14
-2.99
6.83
15
20.98
25.14
28.52
32.49
38.39
47.21
59.3
73.99
89.42
102.74
110.87
111.53
104.1
89.91
71.62
52.24
34.09
18.35
5.25
-5.35
-13.5
-19.07
-21.98
-22.6
-21.7
-20.24
-18.99
-18.23
-17.79
-17.23
-16.19
-14.55
-12.43
-10.13
-7.95
-6.07
-4.45
-2.89
-1.02
1.46
4.7
8.55
12.56
16.22
19.15
21.37
23.29
25.59
28.87
33.42
39.05
45.23
51.35
56.9
61.74
66.02
70.15
74.59
79.66
85.44
91.7
98.14
104.5
110.94
117.94
126.19
136.1
147.25
158.18
166.66
170.37
167.63
157.93
141.91
121.05
97.26
72.59
49.18
28.92
13.26
2.66
-3.51
-6.8
-9.02
-11.42
-14.35
-17.41
-20.25
-23.22
-27.57
-35.05
-47
-63.6
-83.57
-104.58
-123.96
-139.57
-150.34
-156.18
-157.77
-155.93
-151.26
-143.93
-133.92
-121.17
-106.06
-89.56
-73.17
-58.63
-47.23
-39.45
-34.57
-31.06
-27.05
-21.01
-12.29
-1.09
11.74
25.31
38.9
52.04
64.19
74.49
81.83
85.24
84.55
80.75
75.97
72.83
73.58
79.41
90.2
104.7
120.7
135.39
145.65
148.64
142.61
127.67
106.07
81.49
57.76
37.37
20.81
6.8
-6.55
-20.48
-35.05
-49.37
-62.44
-73.81
-83.75
-92.81
-101.17
-108.4
-113.59
-115.91
-115.07
-111.67
-106.91
-102.19
-98.51
-96.23
-95.06
-94.38
-93.69
-92.82
-92.12
-92.15
-93.4
-96.11
-100
-104.48
-108.72
-111.97
-113.67
-113.61
-111.79
-108.35
-103.49
-97.2
-89.36
-79.71
-68.16
-54.95
-40.91
-27.38
-15.91
-7.84
-3.85
-3.84
-7
-12.18
-18.17
-23.93
-28.52
-30.95
-30.22
-25.44
-16.2
-2.91
13.18
30.14
46
59.18
68.96
75.39
79.04
80.6
80.53
79.18
76.79
73.75
70.52
67.56
65.06
62.87
60.54
57.52
53.39
47.94
41.25
33.56
25.33
17.25
10.18
5.01
2.31
2.13
3.82
6.3
8.29
8.75
7.02
2.87
-3.52
-11.69
-20.95
-30.49
-39.49
-47.27
-53.39
-57.59
-59.73
-59.62
-57.17
-52.4
-45.69
-37.74
-29.36
-21.31
-13.96
-7.4
-1.42
4.14
9.33
14.05
18.12
21.41
23.9
25.87
27.84
30.52
34.62
40.65
48.63
58.01
67.82
76.98
84.84
91.37
97.31
103.76
111.55
120.67
129.8
136.57
138.03
131.54
115.5
89.9
56.55
18.72
-19.45
-53.93
-81.7
-101.48
-113.72
-120.16
-123.05
-124.36
-125.47
-127.14
-129.75
-133.3
-137.42
-141.23
-143.59
-143.53
-140.85
-136.27
-131.13
-126.75
-123.73
-121.68
-119.55
-116.16
-110.91
-103.87
-95.68
-86.98
-78.07
-68.71
-58.32
-46.34
-32.56
-17.27
-1.15
14.89
30
43.48
54.76
63.42
69.03
71.38
70.5
66.89
61.46
55.4
49.91
45.89
43.86
43.78
45.31
47.89
50.88
53.73
56.01
57.58
58.51
59.28
60.54
63.08
67.47
73.88
82.01
91.14
100.48
109.34
117.42
124.81
131.88
139.08
146.7
154.81
163.19
171.6
179.99
188.74
198.74
210.94
225.74
242.22
257.76
268.43
270.01
259.31
235.21
198.91
153.3
102.14
49.18
-2.22
-49.21
-89.52
-121.57
-144.82
-159.83
-168.17
-171.84
-172.7
-171.96
-170.17
-167.38
-163.56
-158.97
-154.27
-150.59
-149.16
-150.96
-156.34
-164.85
-175.45
-186.94
-198.65
-210.62
-223.69
-238.82
-256.41
-275.72
-294.68
-310.54
-320.78
-324.17
-321.26
-314.21
-305.85
-298.45
-292.95
-288.83
-284.73
-279.26
-271.64
-261.44
-248.14
-230.71
-207.59
-177.32
-139.18
-93.58
-41.84
14.16
72.3
130.13
184.61
232.25
269.6
294.51
306.98
309.53
306.43
302.22
300.28
301.94
306.59
312.42
317.54
320.74
321.81
321.41
320.59
320.29
320.87
321.93
322.56
321.86
319.35
315.01
308.95
300.65
288.59
270.33
243.41
206.45
160.11
107.14
51.52
-2.68
-52.49
-96.33
-133.86
-165.34
-191.34
-212.54
-229.89
-244.55
-257.52
-269.24
-279.1
-285.55
-286.79
-281.75
-271.06
-257.21
-243.95
-234.98
-232.55
-236.7
-245.4
-255.56
-264.34
-270.22
-273.18
-274.3
-275.05
-276.9
-280.97
-287.88
-297.35
-307.68
-315.7
-317.32
-308.88
-288.54
-257.1
-217.6
-173.92
-129.07
-84.11
-38.63
7.89
54.28
96.98
130.96
151.62
157.2
149.75
134.63
118.48
106.64
101.55
102.46
106.78
111.81
116.1
119.68
123.37
127.7
132.33
136.08
137.6
136.18
132.14
126.78
121.7
118.16
116.52
116.16
115.93
114.69
111.95
107.95
103.61
99.96
97.61
96.54
96.04
95.19
93.23
89.95
85.65
80.94
76.39
72.21
68.25
64.02
59.15
53.47
47.18
40.8
34.98
30.3
27.07
25.33
24.73
24.74
24.72
24.15
22.79
20.67
18.11
15.51
13.18
11.23
9.59
8.1
6.69
5.44
4.52
4.13
4.3
4.93
5.78
6.63
7.32
7.75
7.93
7.87
7.68
7.45
7.36
7.55
8.07
8.88
9.74
10.36
10.48
9.98
8.96
7.63
6.33
5.23
4.44
3.88
3.42
2.96
2.52
2.18
2.06
2.2
2.55
3.01
3.44
3.8
4.05
4.22
4.36
4.54
4.85
5.32
5.95
6.6
7.03
6.99
6.33
5.1
3.53
2.05
0.97
0.49
0.61
1.14
1.94
2.99
4.43
6.41
8.97
11.84
14.55
16.55
17.42
16.99
15.4
12.94
9.93
6.64
3.25
-0.1
-3.25
-5.98
-8.02
-9.17
-9.34
-8.75
-7.83
-7.18
-7.32
-8.48
-10.54
-13.01
-15.31
-16.96
-17.68
-17.45
-16.44
-14.93
-13.26
-11.77
-10.69
-10.09
-9.86
-9.68
-9.23
-8.24
-6.75
-5
-3.42
-2.36
-1.94
-1.97
-1.94
-1.35
0.13
2.45
5.22
7.81
9.7
10.66
10.78
10.45
10.11
10.14
10.69
11.72
13.02
14.32
15.38
15.96
15.88
14.95
13.1
10.36
6.92
3.14
-0.59
-3.83
-6.37
-8.16
-9.32
-10.03
-10.41
-10.54
-10.37
-9.91
-9.1
-7.95
-6.46
-4.67
-2.66
-0.58
1.41
3.12
4.44
5.36
6.01
6.62
7.4
8.47
9.83
11.28
12.64
13.71
14.45
14.91
15.2
15.44
15.58
15.55
15.2
14.45
13.33
11.97
10.61
9.42
8.52
7.88
7.38
6.8
5.98
4.86
3.45
1.85
0.12
-1.69
-3.56
-5.39
-7.04
-8.34
-9.12
-9.37
-9.17
-8.68
-7.99
-7.07
-5.82
-4.16
-2.23
-0.29
1.3
2.29
2.65
2.59
2.44
2.56
3.14
4.15
5.49
6.91
8.21
9.14
9.62
9.62
9.21
8.58
7.89
7.28
6.81
6.52
6.47
6.73
7.34
8.24
9.2
9.83
9.76
8.78
7.03
4.94
3.01
1.65
0.87
0.42
-0.1
-0.97
-2.17
-3.36
-4.1
-4.04
-3.09
-1.48
0.41
2.2
3.68
4.79
5.6
6.22
6.66
6.97
7.19
7.41
7.79
8.38
9.17
9.97
10.53
10.64
10.27
9.58
8.87
8.39
8.24
8.33
8.45
8.37
7.94
7.14
6.05
4.74
3.28
1.69
0.03
-1.65
-3.25
-4.73
-6.12
-7.52
-9.06
-10.69
-12.32
-13.63
-14.33
-14.16
-13.08
-11.27
-9.06
-6.89
-5.04
-3.59
-2.31
-0.76
1.49
4.61
8.42
12.4
15.86
18.32
19.62
19.98
19.83
19.58
19.46
19.45
19.48
19.47
19.52
19.89
20.87
22.69
25.33
28.56
32.01
35.4
38.61
41.74
44.97
48.4
51.95
55.34
58.34
60.76
62.7
64.37
65.97
67.63
69.28
70.82
72.15
73.27
74.09
74.38
73.58
70.93
65.63
57.18
45.77
32.45
18.98
7.38
-0.83
-5.26
-6.91
-7.79
-10.26
-16.12
-26.17
-40.24
-57.59
-77.36
-98.62
-120.05
-139.59
-154.45
-161.71
-159.21
-146.4
-124.21
-94.41
-58.66
-18.22
25.67
70.91
114.04
150.81
177.41
192.14
195.93
191.99
184.12
175.2
166.3
156.87
145.78
132.16
115.9
97.37
77.08
55.28
32.15
8.06
-16.11
-38.97
-58.78
-73.92
-83.39
-87.02
-85.46
-79.9
-71.66
-61.89
-51.32
-40.37
-29.24
-18.04
-6.84
4.34
15.53
26.8
38.06
49.04
59.2
67.95
74.84
79.71
82.86
84.92
86.79
89.39
93.58
99.91
108.52
118.88
129.83
139.7
146.75
149.68
147.93
141.72
131.76
118.71
102.95
84.52
63.64
41.03
18.3
-2.5
-19.46
-31.56
-39.12
-43.57
-46.97
-51.27
-57.9
-67.68
-80.94
-97.57
-117.08
-138.5
-160.23
-180.39
-197.11
-209.07
-215.72
-217.31
-214.6
-208.53
-200.04
-189.93
-178.95
-167.7
-156.67
-146.11
-135.97
-126.04
-116.05
-105.91
-95.76
-85.96
-76.92
-68.94
-62.09
-56.19
-50.96
-46.07
-41.3
-36.55
-31.84
-27.28
-23.02
-19.28
-16.17
-13.73
-11.84
-10.24
-8.66
-6.92
-5.07
-3.33
-2.07
-1.53
-1.77
-2.63
-3.93
-5.54
-7.4
-9.49
-11.69
-13.75
-15.34
-16.17
-16.13
-15.3
-14.02
-12.67
-11.72
-11.47
-12.03
-13.25
-14.8
-16.31
-17.55
-18.61
-19.78
-21.45
-23.78
-26.65
-29.66
-32.39
-34.62
-36.43
-38.15
-40.15
-42.73
-45.96
-49.78
-53.98
-58.32
-62.66
-67
-71.64
-77.17
-84.38
-94.1
-106.93
-123.06
-142.06
-162.74
-183.17
-200.91
-213.59
-219.51
-218.26
-210.82
-199.22
-185.66
-171.93
-158.85
-146.45
-134.33
-122.13
-109.68
-96.81
-83.06
-67.43
-48.36
-24.02
7.03
45.04
88.5
134.08
177.43
214.39
242.34
260.91
271.72
277.43
280.51
282.53
283.89
284.39
283.52
280.75
275.29
266.09
251.97
232.08
206.56
176.6
144.29
111.92
81.44
54.08
30.35
10.23
-6.59
-20.54
-32.23
-42.25
-51.08
-58.94
-65.68
-70.94
-74.3
-75.62
-75
-72.82
-69.48
-65.35
-60.77
-56
-51.31
-46.92
-42.9
-39.13
-35.39
-31.47
-27.35
-23.22
-19.41
-16.18
-13.57
-11.4
-9.3
-6.9
-3.99
-0.54
3.2
6.78
9.7
11.53
12.08
11.46
9.94
7.89
5.6
3.24
0.97
-1.01
-2.43
-3.04
-2.81
-1.91
-0.76
0.35
1.33
2.42
4.01
6.34
9.39
12.82
16.16
19.06
21.41
23.29
24.83
26.1
26.98
27.28
26.73
25.24
22.85
19.85
16.72
13.96
11.98
10.99
10.92
11.45
12.2
12.81
13.04
12.83
12.18
11.15
9.77
8.09
6.16
4.09
1.98
-0.15
-2.29
-4.53
-6.88
-9.3
-11.65
-13.78
-15.58
-17.07
-18.43
-19.78
-21.17
-22.46
-23.32
-23.42
-22.56
-20.8
-18.45
-15.92
-13.61
-11.74
-10.35
-9.33
-8.46
-7.56
-6.53
-5.29
-3.97
-2.68
-1.62
-0.88
-0.44
-0.16
0.13
0.52
1.01
1.49
1.86
2.04
2.05
1.89
1.55
1.01
0.18
-0.93
-2.21
-3.45
-4.43
-5.06
-5.39
-5.64
-6.13
-7.05
-8.4
-9.94
-11.33
-12.23
-12.51
-12.3
-11.88
-11.54
-11.52
-11.91
-12.68
-13.72
-14.8
-15.62
-15.83
-15.13
-13.36
-10.65
-7.38
-4.03
-1.03
1.41
3.22
4.49
5.32
5.75
5.91
5.9
5.95
6.21
6.71
7.32
7.83
8.08
8.02
7.81
7.63
7.66
7.87
8.13
8.23
7.96
7.25
6.1
4.64
2.93
1.05
-1.05
-3.37
-5.81
-8.21
-10.28
-11.86
-12.84
-13.32
-13.48
-13.52
-13.66
-14.12
-15.22
-17.25
-20.45
-24.77
-29.89
-35.24
-40.22
-44.4
-47.58
-49.81
-51.23
-52
-52.17
-51.78
-50.81
-49.23
-47.01
-44.06
-40.3
-35.66
-30.2
-24.12
-17.75
-11.53
-5.92
-1.37
1.88
3.73
4.33
4.01
3.25
2.44
1.78
1.23
0.43
-1.1
-3.84
-8.09
-13.84
-20.75
-28.14
-35.21
-41.18
-45.61
-48.54
-50.43
-51.95
-53.64
-55.67
-57.92
-60.22
-62.67
-65.86
-70.71
-78.09
-88.43
-101.47
-116.41
-132.22
-148.03
-163.47
-178.73
-194.55
-211.99
-232.1
-255.38
-281.24
-307.45
-330.2
-344.85
-347.28
-335.3
-309.46
-272.89
-230.08
-185.29
-141.31
-99.21
-58.83
-19.84
17.61
52.82
84.99
113.91
140.14
164.89
189.5
215.04
242.2
271.27
302.12
333.84
364.42
390.75
409.3
417.17
413.26
398.78
376.76
351.01
324.82
300.25
278.04
258.09
240.09
223.68
208.49
193.96
179.42
164.27
148.36
132.04
116.1
101.48
88.85
78.42
69.91
62.61
55.77
48.76
41.33
33.61
26.06
19.21
13.48
9.01
5.67
3.13
0.98
-1.14
-3.47
-6.09
-8.87
-11.56
-13.83
-15.52
-16.64
-17.42
-18.16
-19.02
-19.84
-20.21
-19.75
-18.29
-16.17
-13.97
-12.37
-11.7
-11.88
-12.52
-13.13
-13.47
-13.56
-13.66
-14.05
-14.89
-16.06
-17.21
-17.95
-17.98
-17.26
-16.02
-14.72
-13.87
-13.88
-14.96
-16.99
-19.62
-22.22
-24.15
-24.76
-23.65
-20.67
-16.03
-10.17
-3.65
2.95
9.19
14.74
19.43
23.19
26.14
28.59
31.01
33.94
37.79
42.76
48.72
55.32
62.07
68.55
74.54
80.06
85.42
91.03
97.34
104.65
113.01
122.21
131.86
141.64
151.44
161.58
172.74
185.88
201.96
221.64
244.96
270.88
297.17
320.51
337.31
344.68
341.41
328.41
308.25
284.16
258.8
233.63
208.85
184.1
159.18
134.44
110.59
88.2
67.3
47.29
27.27
6.53
-15.19
-37.71
-60.65
-83.66
-106.45
-128.56
-149.07
-166.71
-180.17
-188.65
-192.17
-191.45
-187.47
-180.99
-172.32
-161.73
-149.97
-138.7
-130.44
-127.75
-132.3
-144.13
-161.67
-182.27
-203.12
-221.87
-236.93
-247.4
-252.81
-253.14
-248.84
-240.95
-231
-220.57
-210.94
-202.62
-195.36
-188.4
-180.9
-172.24
-162.23
-151.1
-139.34
-127.64
-116.6
-106.66
-97.96
-90.39
-83.72
-77.72
-72.35
-67.64
-63.71
-60.51
-57.86
-55.46
-53.03
-50.47
-47.92
-45.67
-43.88
-42.55
-41.31
-39.64
-37.06
-33.33
-28.59
-23.36
-18.46
-14.69
-12.56
-12.09
-12.71
-13.5
-13.51
-12.25
-9.85
-7.01
-4.6
-3.29
-3.21
-3.93
-4.77
-4.94
-3.83
-0.99
3.74
10.28
18.08
26.21
33.55
39.07
42.25
43.1
42.2
40.31
38.12
36.02
34.1
32.38
30.84
29.54
28.53
27.73
26.93
25.9
24.56
23.02
21.59
20.55
19.95
19.54
18.87
17.52
15.21
12.04
8.27
4.34
0.62
-2.61
-5.18
-7.09
-8.37
-9.22
-9.86
-10.59
-11.59
-12.92
-14.49
-16.06
-17.51
-18.76
-19.94
-21.23
-22.81
-24.72
-26.85
-29.02
-30.99
-32.54
-33.4
-33.26
-31.86
-29.07
-25.08
-20.42
-15.91
-12.23
-9.78
-8.43
-7.69
-6.96
-5.86
-4.51
-3.33
-2.87
-3.27
-4.28
-5.28
-5.58
-4.85
-3.21
-1.23
0.41
1.19
1.09
0.46
-0.07
0.11
1.24
3.08
4.8
5.43
4.08
0.62
-4.31
-9.45
-13.47
-15.68
-16.19
-15.86
-15.75
-16.66
-18.97
-22.7
-27.45
-31.95
-33.82
-29.76
-17.03
4.81
32.49
59.46
78.09
82.84
72.69
51.43
25.8
2.43
-14.63
-24.6
-28.93
-29.43
-26.86
-20.69
-9.92
5.84
25.79
48.07
70.26
89.77
104.09
110.52
106.2
88.49
56
9.51
-47.59
-109.82
-171.17
-226.52
-272.66
-308.17
-332.79
-346.84
-351.1
-347.21
-337.89
-326.69
-316.97
-310.76
-308.1
-307.28
-305.73
-301.29
-292.84
-280.42
-264.7
-246.24
-225.22
-201.41
-174.64
-145.23
-114.26
-83.6
-55.46
-31.87
-14.08
-2.27
4.47
7.76
9.46
11.15
13.87
18.21
24.53
33.15
44.6
59.49
78.46
102.09
130.98
165.63
206.08
251.26
298.43
343.22
380.49
405.88
417.26
415.66
404.84
389.94
375.8
365.74
361.06
361.32
364.84
369.06
370.82
366.77
354.1
331.54
299.96
262.41
223.17
186.55
155.52
130.96
111.68
95.02
78
58.26
34.92
8.65
-18.6
-44.57
-67.62
-87.28
-104.33
-120.04
-135.45
-150.81
-165.68
-179.52
-192.19
-204.16
-215.99
-227.87
-239.34
-249.67
-258.42
-265.7
-271.83
-276.5
-278.16
-274
-261.02
-237.44
-203.59
-161.88
-115.69
-68.01
-20.63
25.74
70.81
113.99
154.24
190.22
220.48
243.24
256.04
255.71
239.24
205.33
155.84
96.26
34.78
-19.79
-60.41
-83.48
-89.14
-80.42
-61.99
-38.61
-14.32
7.95
26.51
40.76
50.61
55.67
54.74
46.05
28.28
1.98
-29.56
-60.91
-86.23
-101.44
-105.46
-99.92
-87.82
-71.89
-53.92
-35.05
-16.68
-0.74
10.94
17.73
21.09
24.25
31
43.98
63.86
89.45
118.29
147.85
176.14
201.97
224.82
244.53
261.04
274.32
284.28
290.83
293.91
293.38
289.03
280.6
267.99
251.44
231.67
209.78
186.93
164.16
142.03
120.74
100.21
80.29
60.79
41.44
21.72
0.6
-23.21
-51.21
-84.26
-121.86
-161.54
-199.05
-229.34
-248.19
-253.82
-247.38
-232.59
-214.13
-196.01
-180.62
-168.53
-159.34
-152.32
-146.96
-142.8
-139.21
-135.25
-129.83
-122.27
-112.54
-101.38
-89.96
-79.43
-70.46
-63.04
-56.63
-50.37
-43.58
-35.87
-27.35
-18.46
-9.91
-2.48
3.15
6.44
7.27
5.92
3.18
0.03
-2.69
-4.69
-6.49
-9.12
-13.72
-20.68
-29.35
-37.89
-44.05
-46.11
-43.61
-37.84
-31.17
-26.25
-24.76
-26.87
-31.08
-34.99
-36.41
-34.23
-29.03
-22.87
-18.55
-18.6
-24.29
-35
-48.09
-59.53
-64.52
-58.65
-39.2
-6.69
34.18
75.04
106.03
119.44
112.76
89.9
59.21
29.79
7.53
-6.74
-16.05
-24.39
-33.68
-42.8
-48.75
-49.24
-44.51
-37.61
-33.13
-34.91
-44.63
-61.07
-80.34
-97.16
-106.27
-103.55
-86.72
-55.68
-12.76
37.02
86.33
126.68
150.45
153.3
135.6
102.48
61.9
22.1
-10.67
-33.08
-44.4
-45.64
-38.97
-27.88
-17.13
-12.13
-17
-32.29
-53.99
-74.11
-83.33
-73.88
-42.46
8.47
70.64
131.66
178.06
198.91
189.29
151.84
95.97
34.45
-20.97
-63.1
-90.51
-106.12
-114.49
-119.19
-122.09
-123.9
-125.49
-128.38
-134.33
-144.24
-157.44
-171.84
-184.65
-193.84
-198.89
-200.95
-202.27
-204.95
-209.85
-215.8
-219.74
-217.58
-205.7
-182.43
-148.85
-108.7
-67.09
-28.97
2.52
26.67
45.04
60.42
75.68
92.93
113.33
137.24
164.28
193.39
222.46
248.4
267.58
276.71
274.01
259.92
237.23
210.17
183.32
160.3
143.01
131.6
124.7
120.22
115.96
110.29
102.39
92.43
81.22
69.78
58.9
48.93
39.97
32.14
25.92
21.99
20.86
22.37
25.43
28.41
29.82
29.12
26.89
24.46
23.06
23.15
24.31
25.58
26.27
26.24
26.02
26.31
27.54
29.57
31.84
33.73
34.83
35.13
34.93
34.57
34.29
34.08
33.82
33.23
32.17
30.59
28.6
26.36
24.02
21.71
19.48
17.4
15.47
13.72
12.1
10.58
9.17
7.85
6.72
5.77
4.92
3.96
2.68
0.98
-1.04
-3.04
-4.71
-5.81
-6.35
-6.5
-6.43
-6.22
-5.84
-5.24
-4.41
-3.53
-2.78
-2.3
-2.07
-1.88
-1.52
-0.8
0.22
1.42
2.59
3.63
4.58
5.57
6.74
8.09
9.51
10.78
11.75
12.34
12.64
12.79
12.92
13.05
13.15
13.14
12.95
12.57
12.03
11.37
10.58
9.62
8.46
7.16
5.9
4.87
4.31
4.31
4.74
5.41
6.01
6.37
6.39
6.11
5.64
5.04
4.43
3.82
3.32
2.95
2.75
2.69
2.68
2.62
2.41
2.08
1.66
1.27
1.04
1.07
1.44
2.18
3.26
4.57
5.94
7.1
7.84
8.02
7.72
7.16
6.7
6.69
7.28
8.45
9.88
11.2
12.01
12.07
11.36
10
8.3
6.48
4.78
3.28
2.01
0.97
0.09
-0.67
-1.48
-2.48
-3.81
-5.44
-7.18
-8.69
-9.61
-9.73
-9.06
-7.85
-6.45
-5.19
-4.21
-3.43
-2.73
-1.94
-1.08
-0.22
0.42
0.73
0.68
0.38
0.07
-0.06
0.14
0.62
1.32
2.04
2.64
3.04
3.24
3.3
3.32
3.47
3.88
4.66
5.75
6.86
7.56
7.22
5.47
2.18
-2.22
-7
-11.35
-14.69
-16.97
-18.55
-20.1
-22.02
-24.3
-26.31
-27.13
-26.04
-22.99
-18.8
-14.9
-12.75
-13.04
-15.4
-18.44
-20.49
-20.41
-18.2
-15.16
-13.21
-14.36
-20.02
-30.76
-46.2
-64.9
-84.3
-100.82
-110.74
-111.3
-102.27
-86.36
-68.54
-54
-45.82
-43.79
-44.77
-44.7
-40.85
-33.23
-24.29
-17.24
-14.27
-15.37
-18.77
-22.04
-23.58
-23.14
-21.54
-19.71
-17.86
-15.34
-10.98
-4.05
5.2
15.42
24.83
32
36.52
39.1
41.08
43.64
47.21
51.3
54.81
56.6
56.11
53.53
49.7
45.73
42.55
40.58
39.61
39.09
38.27
36.7
34.28
31.34
28.41
25.97
24.28
23.26
22.62
22.02
21.2
20.03
18.51
16.65
14.41
11.79
8.84
5.74
2.73
0.07
-2.11
-3.79
-5.03
-5.94
-6.51
-6.71
-6.44
-5.66
-4.29
-2.32
0.28
3.47
7.1
10.88
14.35
17.11
18.86
19.54
19.33
18.51
17.37
16.15
15.01
14.05
13.38
13.04
12.99
13.07
13.07
12.81
12.19
11.3
10.33
9.49
8.95
8.76
8.91
9.52
10.65
12.2
13.96
15.64
17.07
18.2
19.01
19.53
20.01
20.63
21.38
22.13
22.65
22.75
22.34
21.34
19.78
18.47
18.2
19.5
22.4
26.52
31.18
35.65
39.15
41.09
42.99
46.37
52.13
60.12
69.53
79.45
89.24
98.39
106.42
116.69
131.72
152.07
175.75
199.57
220.71
237.65
249.95
257.67
267.34
284.16
310.05
343.09
379.63
416.93
453.89
489.81
522.57
556.54
593.04
629.54
660.62
681.55
691.43
693.3
691.38
645.92
536.76
367.35
167.32
-25.24
-183.58
-298.83
-374.67
-416.43
-439.14
-445.51
-436.05
-412.8
-381.33
-348.85
-321.95
-302.68
-291.6
-288.85
-287.34
-282.03
-271.14
-256.54
-241.27
-228.19
-218.72
-213.6
-213.34
-213.84
-213.3
-211.36
-208.93
-205.7
-202.23
-199.07
-197.32
-198.19
-200.59
-206.63
-217.87
-234.48
-252.25
-269.44
-285.8
-302.85
-321.97
-343.67
-373.24
-414.75
-469.3
-529.87
-591.84
-650.44
-700.98
-737.41
-755.06
-758.62
-754.61
-748.27
-735.92
-718.29
-697.16
-675.28
-653.41
-595.14
-485.01
-330.81
-195.48
-93.44
-23.01
32.41
78.88
119.78
156.79
185.07
201.78
208.32
215.66
228.79
248.72
272.47
297.08
319.29
331.84
330.57
316.34
298.88
283.64
272.58
263.93
255.89
247.31
235.7
221.26
206.75
198.74
199.12
206.21
215.87
224.72
230.74
231.89
227.54
218.14
206.15
192.33
176.69
159.01
140.05
121.21
103.62
88.17
75.24
65.13
56.99
49.56
41.65
32.77
23.03
12.95
3.21
-5.62
-13.09
-19.03
-23.49
-26.67
-28.9
-30.49
-31.7
-32.59
-33.04
-32.74
-31.33
-28.49
-24.04
-18.1
-11.03
-3.4
4.18
11.31
17.91
24.27
30.92
38.43
47.17
57.27
68.67
81.36
95.46
111.24
129
148.83
170.62
194.04
218.36
242.06
262.38
275.48
277.36
265.51
240.27
205.42
166.92
130.81
100.97
77.89
59.15
41.1
20.79
-2.94
-29.34
-56.58
-82.77
-106.52
-127.21
-144.68
-158.96
-169.94
-177.16
-179.8
-176.83
-167.58
-152.03
-131.32
-107.65
-83.69
-61.5
-41.82
-23.6
-4.6
17.3
42.89
70.72
97.49
118.98
131.53
132.93
122.69
102.15
74.58
45.64
22.92
14.2
24.22
51.75
88.34
120.3
133.47
118.82
76.41
15.35
-49.94
-105.44
-142.38
-159.06
-159.73
-151.25
-139.76
-128.69
-118.72
-109.11
-99.41
-90.15
-82.31
-76.32
-71.06
-64.25
-53.64
-38.46
-20.41
-3.14
9.42
15.38
15.78
13.99
13.89
17.72
25.28
34.19
41.42
45.13
46.22
46.95
49.01
52.12
53.95
53
49.29
44.41
40.26
38.61
38.74
37.56
31.86
20.36
7.15
-1.7
-2.27
4.8
16.41
27.23
31.82
26.79
11.35
-9.37
-28.54
-39.99
-38.46
-17.04
29.66
101.99
193.91
292.87
386.76
464.17
517.21
525.57
480.6
391.22
280.94
188.31
119.6
69.7
31.19
-3.43
-36.22
-64.47
-85.47
-100.13
-111.96
-124.73
-137.93
-150
-158.76
-162.35
-158.21
-138.03
-99.36
-58.32
-26.35
-2.78
13.02
22.2
26.16
27.19
27.07
25.14
19.73
10.3
-2.06
-16.61
-32.36
-48.38
-63.87
-78.59
-93.81
-110.56
-127.48
-141.72
-150.67
-152.43
-146.63
-134.62
-118.86
-102.55
-87.96
-75.13
-63.39
-52.56
-42.94
-35.12
-29.56
-26.02
-23.78
-21.71
-18.33
-13.18
-6.93
-0.9
3.66
5.86
5.51
2.91
-1.35
-6.44
-11.96
-17.88
-24.43
-31.68
-39.46
-47.35
-54.71
-61.09
-66.18
-70.01
-72.69
-74.47
-75.56
-76.21
-76.79
-77.59
-78.83
-80.23
-81.15
-80.54
-77.47
-71.35
-62.29
-51.2
-39.46
-28.74
-20.36
-15.12
-13.01
-13.34
-15.03
-16.86
-18.01
-18.09
-17.27
-16.02
-14.88
-14.2
-13.95
-13.9
-13.62
-12.81
-11.31
-9.19
-6.63
-3.87
-1.1
1.57
3.95
5.89
7.21
7.87
7.9
7.54
7.09
6.76
6.68
6.74
6.78
6.55
5.92
4.94
3.84
3.17
3.48
5.28
8.75
13.65
19.32
24.85
29.38
32.29
33.46
33.16
32.15
31.34
31.66
33.74
37.72
43.28
49.67
56.28
62.87
69.81
78.06
88.67
102.34
118.79
136.56
152.95
164.72
168.74
163.01
147.55
124.46
97.77
72.05
51.2
37.17
29.59
26.07
23.19
17.71
7.45
-8
-27.28
-47.44
-64.81
-75.84
-78.24
-71.7
-57.94
-40.32
-22.7
-8.52
-0.08
1.54
-3.68
-14.98
-30.88
-49.21
-67.47
-83.19
-94.81
-102.06
-105.97
-108.38
-110.83
-114.06
-117.61
-120.41
-121.38
-120.18
-117.44
-114.36
-112.24
-111.77
-112.92
-114.89
-116.63
-117.22
-116.31
-114.23
-111.8
-110.14
-110.09
-112.07
-115.75
-120.3
-124.64
-127.7
-128.9
-127.98
-125.09
-120.39
-114.08
-106.22
-96.96
-86.58
-75.49
-64.2
-53.05
-42.42
-32.64
-24.29
-18.11
-14.75
-14.39
-16.32
-19.15
-21.06
-20.71
-17.64
-12.43
-6.35
-0.64
3.93
7.35
9.99
12.37
14.75
17.02
18.95
20.26
20.94
21.16
21.26
21.48
22.01
22.92
24.17
25.85
27.95
30.7
34.39
39.42
46.2
54.93
65.54
77.43
89.68
101.08
110.61
117.6
121.88
123.61
122.94
119.86
113.96
104.91
92.6
77.76
61.82
46.68
34.11
24.97
19.03
14.94
11.04
5.91
-0.9
-8.77
-16.4
-22.4
-26.2
-28.19
-29.86
-33.06
-39.36
-49.59
-63.5
-79.97
-97.23
-113.22
-125.83
-133.56
-136.26
-135.77
-136.08
-142.18
-158.13
-184.65
-218.02
-250.69
-273.96
-281.32
-270.96
-246.1
-213.04
-178.44
-146.66
-119.07
-94.61
-71.23
-46.93
-20.03
10.63
45.44
83.12
120.16
151
169.5
171.26
155.54
125.83
88.78
51.97
21.63
1.22
-8.64
-9.38
-3.31
7.07
19.53
32.11
43.21
51.79
57.68
61.53
64.58
68.24
73.18
79.18
85.16
89.96
92.9
94.17
94.5
94.46
94.07
92.72
89.89
85.74
81.37
78.4
78.18
81.13
86.47
92.79
98.55
102.62
104.41
103.62
100.37
95.04
88.41
81.29
74.08
66.45
57.56
46.85
35.15
25.31
21.88
29.74
51.92
87.74
132.17
176.91
212.93
233.39
235.86
222.64
199.4
172.62
147.21
125.28
106.34
88.55
69.94
49.28
26.13
0.81
-25.63
-51.29
-73.26
-88.31
-93.78
-88.79
-74.67
-54.8
-33.43
-14.42
-0.23
8.37
11.91
11.63
8.82
4.65
0.04
-4.3
-7.89
-10.62
-12.79
-15.14
-18.45
-23.25
-29.51
-36.66
-43.96
-50.84
-57.38
-64.15
-72.05
-81.74
-93.24
-105.83
-118.14
-128.63
-136.03
-139.84
-140.35
-138.65
-136.17
-134.25
-133.7
-134.54
-136.19
-137.76
-138.62
-138.7
-138.59
-139.18
-141.12
-144.36
-147.85
-149.92
-148.54
-142.06
-129.5
-110.98
-87.88
-62.79
-39.25
-20.71
-9.32
-4.63
-3.44
-0.71
8.43
26.68
53.57
85.95
119.67
151.35
179.22
202.85
222.13
236.51
244.92
246.54
241.49
230.91
216.35
198.81
178.3
154.19
126.23
95.4
64.1
35.44
12.06
-4.92
-16.21
-23.67
-29.45
-34.92
-40.39
-45.19
-48.24
-48.7
-46.16
-40.81
-33.22
-24.3
-15.03
-6.34
1
6.65
10.65
13.51
15.94
18.64
22.03
26.15
30.66
35.02
38.69
41.19
42.26
41.82
40.06
37.35
34.22
31.22
28.69
26.81
25.55
24.74
24.07
23.07
21.19
17.91
13
6.65
-0.41
-7.28
-13.25
-18.02
-21.77
-24.79
-27.21
-28.8
-29.25
-28.64
-27.7
-27.71
-29.87
-34.69
-41.64
-49.45
-56.7
-62.53
-66.79
-69.9
-72.26
-73.97
-74.77
-74.23
-72.04
-68.11
-62.55
-55.6
-47.5
-38.61
-29.25
-19.68
-9.94
0.01
10.12
19.95
28.69
35.38
39.41
40.83
40.37
39.03
37.51
35.9
33.8
30.65
26.2
20.53
13.86
6.19
-2.76
-13.32
-25.27
-37.4
-47.65
-53.7
-53.97
-48.23
-37.7
-24.27
-9.46
6.34
23.7
43.26
64.5
85.09
101.34
109.6
107.85
96.69
79.16
59.52
41.61
27.77
18.58
13.38
11.13
10.94
12.22
14.47
16.97
18.86
19.35
18.09
15.35
11.93
8.79
6.53
5.11
3.87
1.92
-1.29
-5.61
-10.18
-13.81
-15.61
-15.31
-13.39
-10.71
-8.13
-6.17
-5.01
-4.64
-5.09
-6.53
-9.08
-12.75
-17.31
-22.4
-27.67
-32.86
-37.8
-42.34
-46.21
-49.12
-50.94
-51.82
-52.3
-53.08
-54.69
-57.14
-59.83
-61.81
-62.13
-60.22
-56.12
-50.31
-43.6
-36.82
-30.66
-25.57
-21.66
-18.72
-16.31
-13.96
-11.4
-8.76
-6.52
-5.21
-5.05
-5.68
-6.23
-5.76
-3.78
-0.53
3.08
5.98
7.43
7.38
6.4
5.29
4.72
4.88
5.57
6.32
6.56
5.77
3.51
-0.41
-5.7
-11.49
-16.39
-18.9
-18.03
-13.83
-7.5
-1.13
3.07
3.49
-0.26
-7.23
-15.49
-22.72
-27.05
-27.55
-24.43
-18.73
-11.82
-4.79
1.91
8.39
15.05
22.12
29.44
36.57
42.98
48.41
52.96
56.98
60.8
64.46
67.61
69.61
69.76
67.64
63.28
57.2
50.26
43.36
37.23
32.26
28.46
25.61
23.4
21.6
20.1
18.87
17.88
16.99
16.06
14.97
13.82
12.89
12.55
13.04
14.29
15.87
17.24
17.97
17.91
17.24
16.32
15.5
14.86
14.29
13.53
12.34
10.66
8.58
6.39
4.38
2.81
1.77
1.16
0.75
0.3
-0.38
-1.41
-2.78
-4.46
-6.39
-8.45
-10.46
-12.15
-13.25
-13.58
-13.14
-12.08
-10.68
-9.2
-7.86
-6.76
-5.92
-5.29
-4.71
-4.07
-3.25
-2.28
-1.28
-0.4
0.3
0.93
1.62
2.5
3.52
4.5
5.22
5.56
5.63
5.67
5.93
6.45
7.09
7.6
7.85
7.92
8.08
8.63
9.65
10.96
12.15
12.87
12.97
12.65
12.4
12.69
13.85
15.85
18.44
21.2
23.7
25.52
26.23
25.44
22.85
18.48
12.76
6.56
0.93
-3.19
-5.3
-5.42
-3.98
-1.61
1.18
4.03
6.78
9.45
12.19
15.22
18.68
22.64
26.9
31.06
34.62
37.18
38.66
39.35
39.89
40.95
43.07
46.35
50.41
54.49
57.77
59.77
60.65
61.21
62.62
66
71.8
79.54
87.82
94.48
97.27
94.42
85.34
70.75
52.61
33.48
15.65
0.45
-12.29
-23.8
-35.76
-49.17
-63.63
-76.96
-85.53
-85.42
-73.75
-50.37
-18.53
15.51
44.22
61.26
63.47
51.71
30.04
4.07
-20.91
-40.99
-53.95
-58.87
-55.76
-45.61
-30.41
-13.28
2.23
12.88
16.78
13.8
5.43
-5.81
-17.28
-26.89
-33.59
-37.49
-39.61
-41.37
-43.98
-48.03
-53.25
-58.84
-63.8
-67.4
-69.48
-70.45
-70.97
-71.62
-72.7
-74.08
-75.37
-76.13
-76.02
-74.85
-72.52
-69
-64.33
-58.68
-52.32
-45.69
-39.25
-33.36
-28.18
-23.65
-19.63
-15.96
-12.57
-9.47
-6.71
-4.29
-2.17
-0.33
1.27
2.65
3.91
5.26
7.04
9.56
12.95
17.02
21.3
25.24
28.35
30.48
31.74
32.43
32.85
33.21
33.58
33.93
34.26
34.53
34.68
34.7
34.66
34.79
35.41
36.8
39.02
41.75
44.34
46.13
46.69
46.06
44.76
43.52
43.07
43.79
45.72
48.6
52.07
55.76
59.39
62.72
65.53
67.58
68.63
68.43
66.77
63.45
58.26
50.99
41.43
29.5
15.42
-0.17
-16.09
-30.88
-43.11
-51.91
-57.3
-60.18
-61.98
-63.92
-66.55
-69.55
-72.09
-73.41
-73.34
-72.37
-71.33
-70.9
-71.32
-72.41
-73.87
-75.47
-77.1
-78.42
-78.65
-76.47
-70.52
-60.04
-45.51
-28.74
-12.3
1.24
10.25
14.36
14.24
11.03
5.58
-1.82
-11.4
-23.51
-38.12
-54.46
-71.11
-86.36
-98.64
-107.15
-111.99
-114.05
-114.56
-114.46
-113.98
-112.56
-109.32
-103.62
-95.83
-87.5
-81.08
-79.09
-83.25
-93.75
-109.08
-126.36
-142.03
-152.65
-155.63
-149.81
-135.55
-114.58
-89.54
-63.22
-38.04
-15.55
3.53
19.18
31.79
41.84
49.92
56.63
62.62
68.36
74.07
79.55
84.33
87.82
89.5
89.17
86.87
82.99
78.07
72.72
67.42
62.44
57.75
53.14
48.45
43.65
38.98
34.75
31.24
28.48
26.22
24.03
21.56
18.69
15.74
13.3
12.1
12.65
15.07
18.99
23.72
28.46
32.62
35.92
38.39
40.22
41.58
42.55
43.09
43.13
42.66
41.81
40.82
39.9
39.15
38.39
37.32
35.65
33.33
30.71
28.37
26.89
26.52
27.07
27.97
28.63
28.62
27.98
26.99
26.05
25.43
25.19
25.25
25.5
25.99
26.81
28.07
29.76
31.61
33.21
34.1
34.04
33.05
31.48
29.8
28.41
27.48
26.91
26.45
25.82
24.93
23.85
22.76
21.83
21.12
20.57
20.06
19.49
18.81
18.02
17.22
16.47
15.89
15.46
15.13
14.79
14.29
13.58
12.63
11.47
10.12
8.6
6.85
4.88
2.75
0.64
-1.24
-2.71
-3.67
-4.16
-4.27
-4.13
-3.79
-3.23
-2.43
-1.38
-0.22
0.82
1.49
1.62
1.28
0.7
0.31
0.38
1.07
2.16
3.32
4.21
4.67
4.79
4.81
4.92
5.14
5.32
5.23
4.8
4.09
3.34
2.8
2.54
2.51
2.44
2.12
1.42
0.4
-0.8
-1.99
-3.02
-3.88
-4.59
-5.25
-5.88
-6.43
-6.8
-6.87
-6.6
-6.05
-5.36
-4.65
-3.98
-3.32
-2.62
-1.85
-1.08
-0.47
-0.14
-0.14
-0.38
-0.7
-0.97
-1.09
-1.03
-0.69
0
1.13
2.68
4.46
6.14
7.38
7.99
8.04
7.85
7.75
8.01
8.63
9.44
10.27
10.94
11.4
11.65
11.66
11.29
10.44
9.02
7.11
4.96
2.82
0.94
-0.6
-1.81
-2.76
-3.5
-3.99
-4.18
-4.05
-3.64
-2.99
-2.24
-1.46
-0.76
-0.22
0.13
0.28
0.32
0.38
0.63
1.11
1.81
2.63
3.45
4.23
4.96
5.68
6.36
6.98
7.5
7.86
8.09
8.14
7.99
7.58
6.93
6.08
5.11
4.16
3.23
2.29
1.17
-0.22
-1.91
-3.74
-5.44
-6.76
-7.55
-7.9
-8.05
-8.35
-9.02
-10.1
-11.45
-12.8
-13.93
-14.67
-14.98
-14.85
-14.31
-13.37
-12.13
-10.73
-9.33
-8.06
-6.94
-5.91
-4.85
-3.68
-2.37
-0.93
0.53
1.94
3.15
4
4.36
4.17
3.55
2.69
1.82
1.06
0.38
-0.41
-1.45
-2.83
-4.48
-6.19
-7.83
-9.31
-10.65
-11.86
-12.91
-13.67
-13.96
-13.64
-12.65
-11.07
-9.05
-6.8
-4.48
-2.26
-0.24
1.49
2.87
3.91
4.62
5.06
5.26
5.24
4.99
4.53
3.9
3.19
2.52
1.98
1.68
1.67
1.98
2.56
3.28
3.95
4.36
4.36
3.91
3.1
2.14
1.15
0.25
-0.66
-1.69
-2.99
-4.58
-6.35
-8.05
-9.33
-9.9
-9.59
-8.45
-6.72
-4.72
-2.7
-0.82
0.89
2.44
3.74
4.64
4.99
4.77
4.15
3.41
2.94
2.94
3.46
4.36
5.43
6.47
7.37
8.09
8.66
9.09
9.39
9.52
9.4
8.94
8.09
6.82
5.2
3.38
1.56
-0.09
-1.41
-2.39
-3.08
-3.65
-4.31
-5.23
-6.51
-8.1
-9.86
-11.64
-13.28
-14.77
-16.13
-17.44
-18.69
-19.86
-20.85
-21.58
-22.01
-22.1
-21.88
-21.32
-20.43
-19.18
-17.62
-15.81
-13.79
-11.58
-9.12
-6.33
-3.15
0.4
4.26
8.31
12.43
16.49
20.32
23.76
26.6
28.68
29.89
30.24
29.91
29.07
27.9
26.44
24.68
22.47
19.74
16.51
12.97
9.4
6.08
3.26
1
-0.7
-1.95
-2.85
-3.42
-3.62
-3.38
-2.68
-1.53
-0.09
1.46
2.92
4.14
5.07
5.68
6.02
6.1
5.99
5.71
5.32
4.89
4.37
3.67
2.62
1.15
-0.73
-2.82
-4.78
-6.36
-7.41
-8
-8.35
-8.69
-9.14
-9.7
-10.26
-10.72
-11.06
-11.31
-11.55
-11.77
-11.93
-11.91
-11.61
-11.05
-10.31
-9.55
-8.87
-8.34
-7.85
-7.34
-6.68
-5.82
-4.76
-3.56
-2.34
-1.18
-0.2
0.62
1.36
2.07
2.84
3.62
4.3
4.74
4.9
4.78
4.47
4.05
3.56
2.94
2.14
1.09
-0.19
-1.59
-3
-4.31
-5.44
-6.43
-7.37
-8.42
-9.68
-11.2
-12.88
-14.5
-15.84
-16.76
-17.24
-17.37
-17.29
-17.03
-16.52
-15.59
-14.02
-11.71
-8.7
-5.24
-1.62
1.82
4.9
7.62
10.12
12.59
15.09
17.52
19.53
20.72
20.74
19.5
17.2
14.19
10.94
7.82
5.11
2.99
1.52
0.73
0.51
0.59
0.55
-0.04
-1.53
-3.97
-7.1
-10.37
-13.08
-14.68
-14.82
-13.6
-11.36
-8.66
-6.05
-3.94
-2.58
-2
-2.11
-2.69
-3.5
-4.25
-4.69
-4.69
-4.24
-3.48
-2.63
-1.9
-1.41
-1.2
-1.17
-1.2
-1.14
-0.87
-0.36
0.32
1.02
1.59
1.87
1.82
1.49
0.97
0.46
0.06
-0.15
-0.19
-0.16
-0.23
-0.61
-1.47
-2.9
-4.83
-7.05
-9.24
-11.09
-12.38
-13.01
-13.07
-12.71
-12.16
-11.57
-11.04
-10.52
-9.9
-9.05
-7.88
-6.4
-4.69
-2.94
-1.31
0.1
1.26
2.26
3.21
4.25
5.46
6.88
8.4
9.9
11.18
12.12
12.72
13.09
13.49
14.16
15.27
16.82
18.67
20.57
22.26
23.65
24.84
26.12
27.86
30.36
33.7
37.7
42.07
46.57
51.2
56.26
62.2
69.46
78.25
88.66
100.7
114.51
130.15
147.29
165.01
182.05
197.51
211.57
225.69
241.77
260.7
281.27
300.27
313.94
319.93
318.51
312.17
303.85
294.9
284.09
268.21
243.82
208.93
163.75
110.35
51.88
-8.08
-65.51
-115.95
-154.79
-178.42
-185.65
-178.62
-162.4
-143.6
-128.22
-119.85
-118.89
-123.07
-128.98
-133.55
-135.1
-133.4
-129.11
-122.92
-115.11
-105.71
-94.86
-83.24
-72.05
-62.54
-55.44
-50.52
-46.71
-42.71
-37.82
-32.32
-27.37
-24.35
-24.1
-26.5
-30.6
-35.22
-39.56
-43.67
-48.25
-54.28
-62.47
-72.9
-84.96
-97.58
-109.57
-119.94
-128.14
-134.11
-138.18
-140.88
-142.6
-143.54
-143.43
-141.82
-138.1
-131.84
-122.93
-111.71
-99.31
-87.09
-76.1
-67.15
-60.71
-56.46
-53.54
-50.95
-48.1
-45.19
-42.82
-41.25
-40.55
-40.6
-40.89
-40.68
-39.24
-36.07
-31.55
-26.23
-19.9
-12.96
-6.49
-1.41
1.88
3.44
3.67
1.41
-4.1
-10.52
-16.43
-22.01
-27.18
-31.68
-35.29
-38.13
-44
-55.9
-70.02
-84.08
-98.71
-113.75
-128.35
-141.36
-151.62
-163.83
-181.78
-199.49
-214.88
-232
-254.6
-285.31
-324.9
-371.82
-429.27
-496.72
-559.24
-606.72
-638.42
-655.65
-661.45
-659.5
-609.38
-491.57
-372.31
-278.86
-198.06
-127.6
-66.9
-15.73
26.88
63.14
89.31
104.16
120.08
144.58
176.61
213.89
252.85
289.19
318.77
333.52
329.29
314.97
297.9
280.03
262.92
247.62
235.3
227.68
223.38
221.46
226.1
237.57
251.33
263.05
270.02
271.84
269.96
265.11
258.14
252.04
247.63
243.18
237.05
228.25
216.89
203.81
189.65
174.97
160.97
147.99
135.48
123
110.45
98.13
86.5
75.97
66.74
58.72
51.7
45.38
39.64
34.38
29.65
25.46
21.74
18.35
15.14
12.08
9.24
6.84
5.03
3.89
3.3
3.01
2.76
2.32
1.67
0.85
0.04
-0.59
-0.89
-0.83
-0.47
0.07
0.57
0.9
0.97
0.87
0.72
0.65
0.67
0.65
0.43
-0.2
-1.25
-2.61
-4.02
-5.17
-5.86
-6
-5.71
-5.16
-4.58
-4.09
-3.71
-3.44
-3.3
-3.42
-3.9
-4.81
-6.01
-7.19
-7.98
-8.1
-7.52
-6.45
-5.32
-4.47
-4.03
-3.86
-3.64
-3.06
-1.98
-0.58
0.86
1.98
2.63
2.86
2.88
2.93
3.15
3.52
3.92
4.24
4.42
4.47
4.43
4.31
4.06
3.62
2.95
2.07
1.1
0.21
-0.47
-0.87
-1.11
-1.37
-1.95
-3.02
-4.6
-6.49
-8.32
-9.73
-10.42
-10.37
-9.65
-8.52
-7.16
-5.71
-4.27
-2.86
-1.55
-0.35
0.64
1.4
1.93
2.27
2.48
2.64
2.81
2.97
3.16
3.34
3.57
3.92
4.4
4.99
5.57
5.98
6.09
5.92
5.57
5.22
5.02
4.97
5.01
5.02
4.96
4.77
4.46
3.99
3.3
2.33
1.09
-0.34
-1.81
-3.15
-4.23
-5
-5.48
-5.72
-5.81
-5.85
-5.89
-6
-6.14
-6.22
-6.09
-5.63
-4.79
-3.59
-2.23
-0.92
0.13
0.77
1.04
1.02
0.89
0.77
0.77
0.87
1.06
1.32
1.63
1.97
2.29
2.55
2.67
2.68
2.61
2.56
2.57
2.65
2.73
2.7
2.49
2.09
1.53
0.84
-0.02
-1.12
-2.59
-4.43
-6.6
-8.89
-10.97
-12.56
-13.41
-13.45
-12.78
-11.66
-10.35
-9.12
-8.14
-7.43
-7
-6.7
-6.45
-6.06
-5.45
-4.49
-3.15
-1.48
0.37
2.13
3.61
4.7
5.43
5.97
6.54
7.25
8.1
8.98
9.7
10.16
10.3
10.16
9.79
9.16
8.22
6.87
5.12
3.05
0.87
-1.19
-2.95
-4.35
-5.46
-6.41
-7.36
-8.39
-9.47
-10.46
-11.2
-11.54
-11.37
-10.74
-9.81
-8.76
-7.78
-6.94
-6.21
-5.49
-4.74
-3.97
-3.32
-2.94
-2.87
-2.98
-3.04
-2.8
-2.11
-1.09
0.06
1.09
1.93
2.69
3.59
4.85
6.46
8.23
9.82
10.93
11.38
11.25
10.78
10.2
9.74
9.37
9
8.38
7.36
5.88
4.09
2.29
0.76
-0.28
-0.79
-0.83
-0.54
0.04
0.9
2.01
3.3
4.53
5.46
5.94
6.01
5.85
5.72
5.78
6.01
6.29
6.44
6.42
6.22
5.95
5.75
5.7
5.86
6.17
6.58
6.96
7.2
7.18
6.88
6.35
5.68
4.93
4.13
3.26
2.28
1.24
0.22
-0.7
-1.52
-2.32
-3.27
-4.48
-5.87
-7.2
-8.07
-8.19
-7.49
-6.17
-4.64
-3.26
-2.27
-1.65
-1.25
-0.9
-0.48
-0.05
0.33
0.57
0.71
0.9
1.31
2.06
3.11
4.27
5.24
5.86
6.13
6.23
6.45
6.91
7.54
8
7.97
7.25
5.94
4.38
2.93
1.84
1.1
0.6
0.13
-0.31
-0.69
-0.9
-0.91
-0.87
-1.01
-1.6
-2.74
-4.33
-6.06
-7.47
-8.2
-8.08
-7.26
-6.07
-4.93
-4.07
-3.48
-2.96
-2.23
-1.21
-0.02
1.05
1.77
2.08
2.16
2.29
2.69
3.37
4.13
4.69
4.86
4.67
4.37
4.27
4.65
5.49
6.55
7.42
7.82
7.64
7.06
6.41
5.95
5.75
5.67
5.49
5.05
4.37
3.57
2.84
2.23
1.67
1.02
0.14
-1.03
-2.43
-3.94
-5.41
-6.69
-7.65
-8.25
-8.48
-8.42
-8.16
-7.81
-7.41
-6.95
-6.43
-5.81
-5.15
-4.45
-3.72
-2.9
-1.93
-0.78
0.5
1.79
2.93
3.76
4.23
4.35
4.21
3.96
3.72
3.58
3.54
3.61
3.73
3.86
3.98
4.07
4.15
4.15
4.06
3.86
3.65
3.5
3.48
3.6
3.68
3.56
3.06
2.18
0.99
-0.29
-1.4
-2.18
-2.59
-2.81
-3.06
-3.57
-4.43
-5.55
-6.74
-7.75
-8.46
-8.81
-8.82
-8.53
-7.91
-6.97
-5.73
-4.38
-3.09
-2.07
-1.38
-0.97
-0.67
-0.28
0.29
1.05
1.83
2.5
2.87
2.96
2.85
2.73
2.72
2.85
3.04
3.16
3.13
2.99
2.85
2.85
2.99
3.19
3.25
3.04
2.44
1.52
0.4
-0.72
-1.63
-2.21
-2.38
-2.23
-1.93
-1.71
-1.74
-2.12
-2.85
-3.82
-4.94
-6.06
-7.1
-7.88
-8.31
-8.33
-7.95
-7.33
-6.6
-5.92
-5.31
-4.73
-4.11
-3.37
-2.48
-1.49
-0.52
0.27
0.74
0.9
0.88
0.97
1.4
2.23
3.26
4.08
4.33
3.83
2.79
1.64
0.85
0.72
1.16
1.88
2.48
2.69
2.47
2
1.56
1.32
1.33
1.48
1.64
1.77
1.98
2.43
3.16
4.08
4.95
5.58
5.92
6.21
6.75
7.74
9.17
10.74
12.18
13.36
14.45
15.85
17.91
20.8
24.33
28.17
32.01
35.8
39.77
44.32
49.77
56.17
63.23
70.42
77.2
83.2
88.43
93.25
98.26
104.08
111.1
119.36
128.34
137.07
144.28
148.84
150.27
149.08
146.78
145.23
145.53
147.02
146.96
141.26
126
99.27
62.17
18.85
-24.6
-61.61
-86.34
-94.67
-84.8
-57.79
-17.58
29.65
76.92
118.46
151.23
175.31
192.83
206.18
216.37
222.63
223.05
216.09
201.82
182.32
161.01
141.34
125.55
113.94
104.99
96.15
84.91
69.65
49.95
26.55
0.85
-25.38
-50.29
-72.09
-89.27
-100.93
-107.14
-108.95
-107.98
-105.8
-103.41
-101.22
-99.4
-98.34
-99.02
-103
-111.94
-127.07
-148.65
-175.83
-206.79
-239.09
-270.24
-298.25
-322.16
-342.23
-359.69
-376.11
-392.28
-407.85
-421.5
-431.89
-438.81
-443.63
-448.83
-456.71
-468.18
-482.18
-496.24
-507.59
-513.98
-514.09
-507.11
-492.47
-469.71
-438.91
-401.27
-359.16
-315.7
-273.94
-236.1
-203.15
-174.8
-149.93
-126.99
-104.29
-80.39
-54.26
-25.1
7.57
43.83
83.05
123.57
162.91
198.41
228.05
250.99
267.55
278.49
284.36
285.08
280.25
270
255.67
239.76
225.18
214.1
207.09
203.03
199.8
195.23
187.89
177.37
164.15
149.47
134.96
122.19
112.45
106.4
103.74
103.37
103.64
103.1
101.04
97.73
94.22
91.75
91.22
92.89
96.49
101.45
107.1
112.78
117.75
121.28
122.8
122.01
118.98
114.14
108.09
101.48
94.87
88.66
83.03
77.94
73.17
68.31
63.02
57.15
50.76
44.08
37.4
30.91
24.69
18.72
13.06
7.9
3.56
0.41
-1.3
-1.61
-0.84
0.44
1.62
2.24
2.1
1.32
0.13
-1.08
-1.96
-2.23
-1.65
-0.18
2.03
4.55
6.88
8.44
8.89
8.2
6.61
4.6
2.65
1.18
0.4
0.34
0.77
1.34
1.69
1.54
0.84
-0.27
-1.57
-2.81
-3.89
-4.79
-5.58
-6.32
-7.1
-7.91
-8.79
-9.75
-10.81
-11.95
-13.12
-14.21
-15.04
-15.46
-15.27
-14.36
-12.65
-10.16
-7.03
-3.54
-0.04
3.09
5.56
7.3
8.4
9.1
9.64
10.15
10.62
10.91
10.97
10.83
10.65
10.59
10.66
10.79
10.72
10.33
9.63
8.85
8.26
8.07
8.26
8.58
8.7
8.38
7.58
6.44
5.19
4
2.95
2.08
1.36
0.84
0.48
0.26
0.02
-0.39
-1.07
-2.07
-3.32
-4.7
-6.05
-7.26
-8.24
-8.88
-9.16
-9.07
-8.72
-8.25
-7.8
-7.41
-7
-6.38
-5.36
-3.9
-2.09
-0.22
1.4
2.54
3.17
3.41
3.46
3.5
3.59
3.74
3.93
4.2
4.61
5.24
6.07
6.99
7.93
8.75
9.4
9.84
10.03
9.97
9.64
9.1
8.41
7.65
6.83
5.91
4.86
3.65
2.33
1.03
-0.12
-1.02
-1.61
-1.94
-2.1
-2.17
-2.29
-2.54
-3.05
-3.8
-4.77
-5.77
-6.6
-7.1
-7.14
-6.78
-6.12
-5.3
-4.43
-3.57
-2.67
-1.6
-0.28
1.37
3.27
5.22
6.94
8.14
8.68
8.59
8.15
7.73
7.78
8.6
10.28
12.62
15.27
17.78
19.78
21.17
22.11
23.01
24.35
26.43
29.19
32.21
34.87
36.57
37.12
36.76
36.2
36.36
38.15
42.17
48.28
55.48
61.79
64.66
61.66
51.39
34.14
11.99
-11.77
-33.74
-51.37
-63.55
-70.48
-73.14
-72.68
-70.04
-65.96
-61.07
-56.07
-51.52
-47.8
-44.88
-42.37
-39.68
-36.28
-31.95
-26.87
-21.5
-16.41
-12.06
-8.64
-5.99
-3.81
-1.67
0.72
3.48
6.44
9.26
11.52
12.8
12.91
11.85
9.89
7.4
4.81
2.47
0.63
-0.53
-0.97
-0.64
0.37
1.96
4.02
6.44
9.19
12.21
15.5
18.95
22.48
26
29.49
33.03
36.79
41.01
45.9
51.63
58.23
65.64
73.64
81.99
90.48
99.01
107.67
116.62
126.05
136.01
146.52
157.63
169.48
182.16
195.37
208.04
218.18
223.19
220.58
208.67
187.24
157.24
120.31
77.95
31.26
-18.78
-70.76
-122.37
-170.75
-213.14
-247.69
-273.58
-290.58
-297.92
-293.84
-276.09
-243.32
-196.85
-141.39
-84.37
-33.64
4.9
28.89
39.38
39.52
32.83
22.14
9.36
-4.1
-16.85
-27.58
-35.4
-40.18
-42.56
-43.35
-42.95
-40.94
-36.43
-28.61
-17.37
-3.61
11.08
24.92
36.64
45.74
52.55
57.87
62.5
66.93
71.19
74.99
77.95
79.76
80.28
79.42
77.17
73.5
68.51
62.39
55.48
48.08
40.43
32.57
24.38
15.63
6.09
-4.28
-15.34
-26.72
-37.84
-48
-56.59
-63.21
-67.82
-70.68
-72.23
-72.87
-72.83
-72.15
-70.85
-69.03
-67.03
-65.21
-63.87
-63.03
-62.55
-62.18
-61.79
-61.5
-61.57
-62.26
-63.64
-65.52
-67.51
-69.11
-69.88
-69.46
-67.66
-64.43
-59.97
-54.61
-48.88
-43.27
-38.22
-34.04
-30.9
-28.95
-28.22
-28.64
-29.89
-31.42
-32.56
-32.67
-31.41
-28.77
-25.12
-20.94
-16.67
-12.56
-8.68
-5.05
-1.75
1.06
3.18
4.45
4.88
4.66
4.12
3.58
3.21
2.96
2.49
1.35
-0.8
-3.98
-7.72
-11.15
-13.2
-12.83
-9.2
-2.05
8.24
20.35
32.35
42.18
48.56
51.74
53.68
57.51
66.29
81.66
103.1
128.03
152.73
173.61
188.12
195.17
194.89
188.07
175.7
158.83
138.51
115.92
92.32
68.73
45.64
22.9
0.01
-23.39
-46.92
-69.3
-88.74
-103.67
-113.43
-118.53
-120.26
-119.98
-118.43
-115.52
-110.65
-103.29
-93.43
-81.77
-69.35
-57.16
-45.76
-35.22
-25.25
-15.59
-6.26
2.28
9.19
13.56
14.71
12.58
7.81
1.63
-4.56
-9.66
-13.13
-15.03
-15.74
-15.79
-15.58
-15.53
-16.1
-17.85
-21.35
-26.83
-34.21
-42.93
-52.26
-61.41
-69.69
-76.52
-81.42
-84.14
-84.6
-83.12
-80.23
-76.53
-72.51
-68.46
-64.55
-60.96
-58.04
-56.17
-55.61
-56.26
-57.52
-58.58
-58.7
-57.55
-55.32
-52.58
-49.93
-47.68
-45.72
-43.66
-41.04
-37.6
-33.49
-29.15
-25.14
-21.89
-19.5
-17.8
-16.38
-14.88
-13.07
-11
-8.89
-7.04
-5.62
-4.58
-3.69
-2.57
-0.83
1.84
5.62
10.59
16.71
23.75
31.3
38.69
45.1
49.68
51.83
51.29
48.18
43
36.46
29.33
22.35
16.11
10.93
6.94
4
1.87
0.4
-0.43
-0.43
0.63
2.88
6.16
10
13.66
16.35
17.47
16.69
14.17
10.54
6.79
4.13
3.59
5.82
10.79
17.88
25.99
33.92
40.61
45.32
47.63
47.38
44.59
39.46
32.4
24
15.05
6.43
-1.01
-6.44
-9.26
-9.17
-6.29
-1.18
5.22
11.79
17.5
21.58
23.67
23.72
21.94
18.64
14.18
8.9
3.05
-3.2
-9.83
-16.81
-24.05
-31.21
-37.79
-43.16
-46.76
-48.28
-47.67
-45.24
-41.51
-37.18
-32.97
-29.5
-27.23
-26.26
-26.44
-27.34
-28.47
-29.39
-29.81
-29.6
-28.71
-27.21
-25.14
-22.72
-20.24
-18.14
-16.8
-16.43
-16.96
-17.94
-18.77
-18.79
-17.6
-15.12
-11.63
-7.73
-4.1
-1.39
-0.02
-0.07
-1.24
-3
-4.79
-6.24
-7.35
-8.33
-9.61
-11.45
-13.84
-16.47
-18.72
-19.81
-19.06
-16.13
-11.25
-5.43
-0.16
3
3.04
-0.07
-5.38
-11.26
-16.21
-19.35
-20.64
-20.72
-20.39
-20.21
-20.29
-20.38
-20.15
-19.35
-17.85
-15.57
-12.48
-8.5
-3.72
1.58
6.91
11.74
15.75
19
21.97
25.28
29.41
34.47
40.15
45.78
50.68
54.33
56.47
57.12
56.44
54.8
52.63
50.5
48.92
48.15
48.06
48.06
47.31
44.99
40.71
34.6
27.39
20.13
13.88
9.47
7.22
7.06
8.49
10.92
13.68
16.22
18.09
18.88
18.23
15.86
11.82
6.52
0.8
-4.36
-8.13
-10.1
-10.36
-9.39
-7.89
-6.55
-5.97
-6.51
-8.27
-11
-14.07
-16.75
-18.38
-18.62
-17.58
-15.75
-13.75
-12.13
-11.19
-10.96
-11.36
-12.22
-13.43
-14.91
-16.45
-17.76
-18.4
-17.9
-16.01
-12.68
-8.11
-2.66
3.18
8.97
14.24
18.73
22.27
24.84
26.6
27.92
29.19
30.72
32.66
34.97
37.56
40.31
42.9
44.94
46.14
46.43
45.9
44.92
43.85
43.01
42.37
40.93
37.75
32.45
25.64
18.55
12.64
9.05
8.39
10.67
14.24
17.51
19.55
20.26
19.78
18.16
15.38
11.87
8.72
5.6
2.57
-0.07
-2.31
-5.85
-14.33
-31.88
-60.94
-100.23
-146.98
-195.29
-237.89
-268.31
-283.92
-286.39
-280.2
-270.07
-243.58
-195.11
-128.39
-55.75
10.2
62.68
102.25
134.06
163.77
192.92
218.94
235.9
237.96
223.63
195.9
161.45
128.11
101.93
86.49
79.68
78.27
74.94
67.49
54.61
34.85
6.06
-33.44
-82.65
-137.53
-190.09
-230.67
-250.73
-247.58
-224.88
-190.39
-151.97
-114.37
-78.97
-45.01
-11.7
21.07
52.09
80.26
105.48
128.09
147.04
158.39
156.33
136
97.09
44.57
-12.45
-64.2
-103.44
-127.08
-135.47
-130.66
-114.99
-90.67
-60.63
-28.53
2.07
29.26
53.87
78.85
107.2
139.51
172.78
201.24
219.07
223.25
215.16
200.32
186.14
178.76
180.59
189.57
200.27
206.1
201.59
184.01
153.84
114.44
71.15
30.06
-3.39
-25.79
-36.56
-37.75
-33.01
-26.2
-20.31
-17.36
-18.59
-24.76
-36
-51.33
-68.55
-84.73
-97.53
-106.34
-112.56
-118.59
-126.18
-135.08
-142.94
-146.56
-143.54
-133.5
-118.19
-100.51
-83.25
-68.14
-55.79
-46.05
-38.67
-33.75
-31.59
-32.33
-35.47
-39.83
-44.04
-47.11
-48.84
-49.58
-49.67
-48.67
-45.35
-38.1
-25.97
-9.5
9.1
26.55
39.72
46.56
46.84
41.86
33.85
25.01
16.88
10.14
4.72
0.31
-3.39
-6.3
-8.13
-8.51
-7.39
-5.13
-2.36
0.29
2.64
5.08
8.47
13.57
20.62
29.02
37.49
44.57
49.17
50.9
50.09
47.46
43.83
39.87
36.21
33.42
32.01
32.18
33.66
35.69
37.37
38.09
37.75
36.81
35.77
34.85
33.85
32.37
30.19
27.61
25.37
24.2
24.48
26.02
28.14
30
30.88
30.28
27.97
23.99
18.77
13.12
8.11
4.71
3.3
3.47
4.22
4.47
3.66
2
0.27
-0.83
-1.06
-0.88
-1.06
-2.15
-4.12
-6.36
-8.1
-8.84
-8.55
-7.49
-5.88
-3.66
-0.55
3.59
8.42
12.97
16
16.42
13.76
8.27
0.77
-7.67
-16.04
-23.48
-29.28
-32.9
-34
-32.59
-29.08
-24.22
-18.92
-13.98
-9.89
-6.81
-4.66
-3.35
-2.8
-3
-3.84
-5.02
-6.04
-6.35
-5.62
-3.9
-1.68
0.41
1.86
2.43
2.19
1.31
-0.08
-1.94
-4.24
-6.79
-9.23
-11.13
-12.24
-12.57
-12.37
-11.99
-11.66
-11.51
-11.55
-11.8
-12.28
-12.92
-13.45
-13.45
-12.52
-10.54
-7.81
-4.98
-2.8
-1.76
-1.87
-2.69
-3.49
-3.55
-2.38
0.17
3.92
8.47
13.38
18.24
22.75
26.71
29.97
32.39
33.9
34.51
34.4
33.88
33.37
33.23
33.76
34.95
36.63
38.41
39.84
40.56
40.37
39.37
37.83
36.16
34.68
33.47
32.3
30.74
28.46
25.31
21.53
17.59
13.96
10.88
8.24
5.68
2.83
-0.37
-3.6
-6.15
-7.23
-6.27
-3.32
0.99
5.5
8.99
10.68
10.54
9.31
8.1
7.85
8.92
10.95
13.03
13.96
12.6
8.04
-0.26
-12.34
-27.55
-44.43
-60.7
-73.69
-80.99
-81.22
-74.59
-62.91
-49.06
-36.11
-26.4
-20.94
-19.35
-20.22
-21.85
-22.82
-22.33
-20.16
-16.49
-11.71
-6.34
-0.92
3.95
7.77
10.23
11.33
11.41
11.08
11.01
11.68
13.19
15.21
17.07
18.12
18.04
17.03
15.72
14.94
15.35
17.17
20.15
23.68
27.05
29.68
31.23
31.61
30.94
29.44
27.36
24.84
21.97
18.98
16.42
15.22
16.48
21.03
28.99
39.63
51.58
63.34
73.8
82.56
89.91
96.53
103.21
110.62
119.21
129.09
139.76
150.06
158.23
162.24
160.44
152.12
138.22
121.24
104.5
90.65
80.44
72.41
64.19
54.42
43.88
35.28
31.69
34.8
43.99
56.74
69.77
80.12
85.49
83.95
73.78
53.88
24.4
-12.85
-54.98
-99.51
-145.66
-194.45
-247.68
-306.2
-368.83
-432.28
-491.74
-541.98
-578.52
-598.7
-602.55
-592.66
-573.21
-548.4
-520.83
-490.88
-457.47
-419.59
-377.69
-333.87
-290.89
-250.56
-212.71
-175.34
-135.82
-92.4
-45
4.68
53.63
98.08
134.17
158.83
170.86
171.67
165.02
155.61
146.91
139.69
132.08
121.26
105.8
87.2
69.76
58.76
58.34
69.83
91.56
119.73
149.76
177.39
199.62
215.25
225.02
231.42
237.81
247.19
260.99
278.49
297.1
313.5
324.84
329.65
327.96
320.9
310.04
296.85
282.59
268.39
255.24
243.88
234.37
225.87
216.8
205.36
190.34
171.59
150.09
127.42
104.98
83.42
62.35
40.76
17.57
-7.79
-35.04
-62.91
-89.4
-112.26
-129.42
-139.61
-142.49
-138.51
-128.58
-113.81
-95.66
-76.18
-58.41
-46.12
-43.02
-51.35
-70.91
-98.63
-129.3
-156.85
-175.62
-181.28
-171.22
-144.76
-103.48
-51.57
4.31
56.17
96.7
121.58
131.09
129.93
125.43
124.66
131.87
147.26
167.63
188.21
204.82
215.45
220.55
222.38
223.72
226.9
233.12
242.38
253.67
265.23
274.92
280.65
280.86
275.02
263.93
249.59
234.66
221.63
212.03
205.92
202.05
198.27
192.36
182.68
168.6
150.56
129.73
107.4
84.48
61.16
37.01
11.44
-15.74
-44.05
-72.52
-100.21
-127.18
-154.32
-182.86
-213.93
-248.42
-287.25
-331.47
-381.91
-438.06
-497.27
-553.66
-598.79
-624.05
-623.77
-597.2
-548.09
-482.28
-404.83
-319.98
-230.77
-140.92
-56.35
15.04
65.85
92.63
97.94
89.46
73.45
54.85
36.41
19.24
3.31
-11.68
-25.52
-37.42
-46.51
-59.42
-82.13
-116.62
-159.59
-205.02
-247.55
-283.87
-312.84
-334.42
-360.32
-399.89
-455.2
-519.98
-584.44
-641.02
-686.21
-719.74
-742.26
-769.11
-811.7
-871.57
-939.7
-1003.19
-1052.79
-1085.06
-1100.96
-1024.1
-816.38
-492.21
-117.22
234.89
520.6
730.49
874.47
961.82
1015.11
1034.99
1019.81
973.71
908.89
839.48
774.44
718.18
670.54
631.01
587.52
532.02
464.58
393.22
328.33
276.73
240.38
217.67
206.66
198.02
185.41
167.82
149.45
135.95
130.72
133.99
143.96
158.87
173.45
184.07
189.85
192.19
192.96
192.83
191.21
186.43
176.9
159.71
133.07
97.46
56.18
14.86
-20.25
-44.59
-57.22
-61.12
-62.14
-65.95
-75.34
-89.37
-104.09
-115.11
-120.01
-119.73
-117.81
-118.51
-124.39
-135.68
-151.51
-169.88
-188.57
-205.56
-218.83
-225.98
-224.72
-214.1
-195.7
-176.3
-163.96
-164.41
-177.97
-199.21
-219.57
-231.32
-230.84
-219.39
-204.81
-194.34
-191.08
-193.33
-197.1
-199.4
-199.71
-199.3
-198.69
-201.23
-207.78
-216.89
-225.76
-232.68
-238.57
-246.29
-258.84
-256.31
-228.35
-176.02
-111.63
-49.07
3.63
44.51
74.77
93.89
108.66
121.44
135.08
152.78
178.29
214.82
264.56
325.1
386.74
439.52
471.92
479.47
464.3
433.38
394.42
352.95
311.57
271.51
234.61
200.47
169.96
142.16
116.38
92.41
69.41
45.97
21.13
-0.46
-19.54
-35
-49.15
-63.6
-78.23
-93.14
-108.8
-125.44
-141.34
-153.73
-159.25
-161.48
-163.63
-165.94
-167.98
-169.03
-167.52
-157.9
-137.51
-102.46
-58.02
-9.11
42.83
97.31
153.49
210.44
251.54
264.38
282.41
318.95
360.56
400.22
434.74
461.71
479.55
492.73
506.87
525.6
542.59
552.82
555.73
553.56
546.13
499.58
397.85
248.52
78.97
-85.54
-219.87
-325.82
-407.77
-472.29
-528.78
-575.73
-613.52
-644.54
-675.64
-710.8
-748.84
-782.29
-803.07
-805.58
-784.42
-740.52
-679.02
-609.6
-540.51
-476.35
-416.39
-358.77
-302.44
-244.08
-181.74
-112.01
-33.63
52.83
144.36
237.61
328
410.08
481.18
539.45
587.83
628.92
664.03
692.93
716.21
734.9
748.92
757.93
758.64
750.29
730.59
697.33
650.14
592.76
531.85
473.18
421.13
349.05
246.68
121.94
-3.51
-110.03
-189.08
-238.39
-271.11
-297.9
-326.36
-357.05
-391.02
-429.16
-473.67
-524.96
-579.47
-630.67
-669.18
-687.78
-680.45
-647.83
-596.65
-536.83
-476.91
-421.59
-372.55
-328.62
-288.6
-249.68
-210.02
-168.94
-126.97
-85.03
-44.27
-6.34
27.87
57.71
84.52
110.4
137.75
168.42
203.21
241.2
279.06
311.99
334.73
343.73
338
319.22
290.85
256.96
221.25
186.68
155.89
131.21
114.52
106.9
107.94
115.44
125.65
133.83
134.79
123.53
96.31
52.23
-5.35
-68.6
-126.73
-169.16
-189.05
-185.36
-162.62
-128.55
-90.88
-54.89
-22.83
5.3
30.6
54.56
79.21
107.48
142.78
187.58
241.28
298.94
351.9
390.32
406.72
399.01
371.33
332.17
291.09
255.01
226.26
202.8
180.12
153.65
120.89
82.55
42.74
8
-15.01
-22.24
-14.59
1.52
16.07
19.34
5.89
-23.36
-61.84
-100.51
-131.6
-151.23
-160.09
-162.38
-164.12
-171.25
-187.35
-211.87
-239.04
-258.92
-260.98
-239.27
-195.97
-141.37
-89.83
-53.95
-39.84
-45.97
-65.47
-89.88
-111.78
-125.36
-126
-109.83
-74.56
-21.69
42.09
105.67
157.09
188.19
198.08
193.1
183.29
177.15
177.61
181.16
180.43
168.25
141.69
102.97
57.89
12.43
-29.67
-67.83
-103.58
-138.92
-175.33
-214.25
-257.74
-308.4
-367.98
-435.32
-504.94
-567.47
-612.38
-631.88
-623.87
-592.74
-547.27
-497
-448.96
-406.19
-368.39
-333.94
-301.64
-271.37
-243.67
-218.86
-196.6
-176.1
-156.61
-137.95
-120.55
-105.19
-92.37
-81.88
-72.74
-63.44
-52.55
-39.13
-23.2
-5.63
12.3
29.52
45.7
61.25
77.07
93.92
112.07
130.95
149.31
165.71
179.2
189.69
198
205.37
212.87
221.14
229.86
237.99
244.32
248.29
250.39
252
254.86
260.12
268.57
279.63
291.52
302.12
310.11
315.61
320.12
326.02
335.93
353.45
380.61
416.52
456.85
494.95
523.63
537.18
532.8
511.34
478.89
442.17
405.75
370.74
335.86
299.28
260.05
218.9
178.4
144.84
123.36
115.18
117
123.18
128.56
130.54
129.48
109.35
64.33
0.42
-67.89
-127.49
-172.8
-204.03
-223.25
-232.32
-232.49
-224.99
-211.85
-196.65
-183.78
-176.25
-174.61
-177.94
-185.51
-194.9
-203.79
-211.67
-220.08
-231.4
-247.07
-266.68
-288.62
-310.94
-332
-350.51
-367.23
-385.55
-410.03
-443.7
-485.7
-530.5
-568.46
-588.49
-582.18
-547.86
-491.62
-424.34
-356.83
-295.96
-243.29
-195.37
-146.13
-90.43
-26.57
43.76
117.65
193.49
271.4
346.95
409.72
449.7
464.23
458.86
442.09
420.62
397.93
373.49
343.41
303.5
252.89
195.69
140
94.89
66.58
56.13
58.61
65.61
70.06
69.28
64.33
57.08
49
37.57
21.04
-0.2
-23.17
-42.96
-54.94
-56.76
-49.77
-37.89
-25.47
-15.01
-6.98
-0.66
5.08
10.93
16.87
22.37
26.94
30.38
33.2
36.08
39.36
42.91
45.97
47.28
45.21
38.25
25.29
6.31
-17.7
-44.71
-71.91
-96.24
-114.95
-126.34
-130.18
-127.59
-120.51
-110.94
-100.41
-89.72
-79.07
-68.49
-58.08
-48.17
-39.05
-30.84
-23.47
-16.84
-11.01
-6.27
-2.98
-1.32
-1.08
-1.62
-2.08
-1.69
-0.05
2.72
6.05
9.09
11.09
11.54
10.35
7.73
4.08
-0.19
-4.7
-9.11
-13.04
-16.06
-17.76
-17.86
-16.37
-13.57
-9.99
-6.27
-2.97
-0.47
1.07
1.63
1.35
0.53
-0.34
-0.48
1.02
5
11.79
20.99
31.43
41.44
49.39
54.21
55.67
54.29
50.98
46.64
41.93
37.16
32.55
28.33
24.87
22.68
22.31
24.19
28.57
35.37
44.2
54.29
64.52
73.56
80.03
82.73
81.04
75.05
65.68
54.61
43.79
35.05
29.37
26.73
25.98
25.36
23.02
17.5
8.09
-5.07
-21.07
-38.4
-55.35
-70.63
-84.02
-96.61
-110.35
-127.08
-147.18
-168.96
-188.86
-202.81
-207.82
-202.95
-189.19
-168.54
-143.1
-114.79
-85.71
-58.48
-36.05
-20.46
-11.74
-7.48
-4.02
1.66
10.31
20.28
28.86
34.2
36.58
38.17
41.59
48.25
57.59
67.54
75.86
81.54
85.45
90.06
98.17
111.39
129.11
148.38
164.98
175.21
177.54
173.17
165.2
156.79
149.48
143.03
136.39
129.22
122.66
118.49
117.05
116.04
111.04
98.08
76.42
49.17
21.13
-5.17
-32.2
-66.37
-113.47
-173.37
-237.41
-290.78
-318.83
-313.35
-275.44
-213.27
-136.83
-53.3
33.89
122.62
208.85
285.18
343.01
376.41
385.07
374.4
352.7
327.18
301.58
276.45
250.82
224.58
199.16
176.65
158.12
142.49
126.78
107.32
81.46
48.27
8.56
-36.09
-84.2
-134.75
-187.01
-240.02
-292.34
-342.04
-386.98
-424.97
-453.71
-470.94
-474.45
-462.78
-435.85
-395.73
-346.63
-294.34
-244.57
-201.52
-166.68
-138.7
-114.26
-89.23
-60.27
-26.18
11.14
47.01
75.42
91.32
92.69
80.78
59.31
32.27
2.16
-30.39
-65.35
-101.59
-135.75
-162.8
-179.05
-183.6
-178.98
-170.24
-162.94
-160.8
-165.13
-174.4
-184.85
-193.46
-197.56
-194.96
-184.33
-165.85
-140.97
-113.42
-87.3
-65.7
-52.23
-48.11
-50.98
-55.76
-56.88
-49.82
-34.88
-15.14
5.23
19.87
24.55
19.04
6.25
-10.47
-28.19
-47.91
-71.1
-80.79
-65.99
-26.51
27
81.7
121.71
151.94
178.06
203.9
231.25
258.61
281.16
295.1
299.43
295.64
287.74
277.91
268.03
259.6
251.21
241.01
228.38
214.16
199.66
186.64
174.47
162.36
150.17
137.29
123.83
111
100.2
91.85
85.41
78.24
68.13
54.59
38.5
22.09
8.07
-1.87
-8.19
-12.96
-19.53
-30.22
-45.16
-62.55
-79.44
-93.02
-101.81
-106.25
-108.31
-110.63
-115.15
-121.96
-128.8
-131.34
-124.25
-103.08
-66.55
-18.09
34.19
79.62
108.61
116.14
103.73
78.6
50.6
28.48
17.11
16.83
24.69
36.56
48.79
58.9
65.37
67.22
63.82
55.04
41.68
25.53
9.14
-4.88
-14.69
-19.77
-21.1
-20.69
-20.73
-22.65
-26.72
-32
-37.02
-40.43
-41.59
-40.63
-38.31
-35.64
-33.7
-33.45
-35.55
-40.04
-46.11
-52.12
-55.94
-55.63
-50.15
-39.74
-25.95
-11.05
2.68
13.86
22.35
29.15
35.73
43.09
50.97
57.61
60.27
56.42
45
27.3
6.86
-11.48
-23.13
-25.18
-17.15
-0.67
21.42
46.36
72.28
98.22
123.6
147.31
167.23
180.57
184.8
178.62
162.18
136.66
103.45
63.87
19.48
-27.1
-72.14
-111.49
-142.12
-163.35
-176.94
-185.81
-192.37
-197.22
-199.48
-198.11
-193.19
-186.23
-179.04
-172.32
-164.96
-154.63
-139.4
-119.3
-97.04
-77.33
-65.39
-64.98
-76.78
-97.6
-120.82
-137.76
-140.17
-122.74
-85.01
-31.93
27.36
82.3
124.05
147.94
154.38
148.08
136.06
125.39
121.24
126.27
140.69
162.83
189.54
216.45
238.27
249.64
246.24
225.91
189.2
138.99
79.44
15.21
-49.18
-108.86
-158.48
-193.13
-210.37
-211.51
-201.67
-187.88
-176.05
-169.12
-165.98
-162.6
-154.8
-141.03
-122.62
-102.35
-82.42
-62.9
-43.34
-23.04
-1.87
19.16
37.37
50.38
57.69
61.26
65.35
72.71
84.65
101.08
120.03
137.1
147.21
146.56
134.28
113.61
88.12
61.92
38.76
28.4
37.21
63.8
98.69
124.07
138.38
144.37
144.25
140.96
133.93
120.32
97.78
66.38
29.33
-7.54
-40.46
-67.85
-89.99
-109.06
-128.95
-153.86
-187.23
-230.8
-283.39
-342.48
-402.67
-455.71
-493.09
-509.33
-504.09
-482.2
-451.47
-419.17
-390.65
-367.56
-348.26
-330.08
-311.16
-291.08
-270.24
-248.69
-225.32
-198.71
-167.42
-130.39
-87.16
-38.29
14.81
69.98
124.82
177.19
225.33
268.15
305.38
337.74
367.01
395.69
426.21
459.59
494.17
524.7
543.19
541.32
514.38
463.85
397.76
328.52
269.05
229.4
213.55
218.53
235.62
254.63
266.28
263.94
244.2
207.28
158.07
103.54
50.72
3.82
-32.9
-56.46
-65.48
-61.4
-48.31
-30.22
-12.22
0.39
1.84
-7.3
-21.81
-34.23
-39.55
-36.73
-25.8
-9.05
10.64
28.38
44.86
63.14
86.48
114.21
124.95
102.9
45.15
-18.67
-79.05
-131.64
-178.43
-215.09
-237.24
-242.62
-229.69
-200.99
-162.35
-125.32
-97.52
-83.11
-79.82
-82.71
-86.01
-83.62
-72.89
-53.99
-32.95
-14.22
-1.15
8.3
17.69
30.08
47.24
68.47
93.39
119.26
144.53
166.31
184.53
198.75
207.74
209.97
191.38
146.74
81.07
19.62
-30.66
-68.17
-95.54
-112.86
-120.58
-120.22
-112.06
-97.51
-78.58
-59.22
-40.3
-21.69
-3.42
13.32
26.9
37.67
46.04
51.8
52.75
48.88
41.52
32.77
24.11
16.15
9.55
3.93
-1.72
-8.96
-17.22
-24.82
-30.32
-33.73
-36.23
-38.94
-42.7
-47.82
-54.43
-61.62
-68.11
-72.77
-75.14
-75.36
-73.84
-71.21
-68.03
-64.65
-60.94
-56.82
-52.77
-50.06
-50.2
-54.06
-61.15
-69.53
-76.43
-79.32
-76.83
-69.09
-57.51
-44.01
-30.46
-18.13
-7.69
0.79
7.48
12.4
15.12
14.7
10.06
0.54
-13.39
-29.93
-46.33
-59.92
-69.14
-73.96
-75.63
-75.56
-74.47
-71.96
-67.11
-59.61
-50.76
-43.32
-40.19
-42.66
-48.91
-54.44
-53.75
-42.89
-21.56
6.8
36.88
64.22
86.99
106.16
123.8
141.34
158.8
175.19
189.68
202.99
217.66
237.12
264
297.98
335.01
368.1
388.83
389.49
366.07
319.65
255.47
180.49
99.69
16.07
-67.61
-146.9
-215.65
-265.97
-290.98
-287.75
-258.5
-212.09
-159.16
-108.11
-63.58
-28.15
-1.9
16.58
29.06
37.46
39.36
32.07
15.09
-9.51
-39.51
-71.59
-102.06
-127.69
-145.51
-158.48
-170.04
-181.38
-176.46
-144.59
-87.65
-19.71
33.74
70.83
91.44
95.31
86.48
67.41
38.25
-1.16
-50.2
-107.05
-155.56
-185.23
-192.78
-182.67
-162.89
-141.13
-121.57
-105.13
-90.82
-76.18
-63.38
-54.96
-51.71
-52.51
-55.82
-60.11
-63.83
-65.85
-64.83
-62.81
-62.4
-65.42
-72.89
-85.16
-101.03
-116.74
-126.27
-122.62
-102.76
-68.55
-26.48
14.53
46.39
64.54
70.95
70.6
69.59
71.6
77.26
84.78
91.44
95.27
95.38
92.15
86.53
79.92
73.52
68.48
65.92
66.6
69.84
72.41
68.24
49.65
10.65
-49.65
-124.94
-202.86
-268.91
-311.76
-327.56
-320.44
-299.82
-275.5
-253.77
-235.95
-220.22
-204.14
-185.7
-164.23
-139.88
-112.8
-82.67
-48.78
-11.26
28.14
66.16
98.99
123.27
137.47
142.28
140.17
134.28
127.16
119.97
112.5
103.84
93.12
80.39
66.82
54.34
44.94
39.77
38.67
40.26
42.49
43.34
41.49
36.72
29.72
21.66
13.56
5.89
-1.46
-8.93
-16.81
-24.78
-31.82
-36.37
-36.88
-32.39
-22.87
-9.22
7.26
25.35
44.48
64.89
87.34
112.74
141.83
175.13
212.68
253.73
296.24
336.6
370.14
392.28
400.28
394.32
377.62
355.11
331.45
309.4
289.31
269.99
249.96
228.55
205.99
182.74
158.73
133.12
104.7
72.92
38.62
4.22
-26.91
-51.73
-68.59
-77.77
-81.19
-81.44
-80.69
-79.9
-78.71
-75.96
-70.64
-62.8
-53.83
-46.12
-41.97
-42.54
-47.32
-54.28
-60.81
-64.82
-65.54
-63.56
-60.23
-56.81
-53.92
-51.55
-49.49
-47.8
-46.99
-47.9
-51.19
-56.96
-64.6
-72.91
-80.45
-85.94
-88.58
-88.17
-85.1
-80.18
-74.31
-68.23
-62
-54.92
-45.7
-33.12
-16.93
1.71
20.19
35.36
44.63
46.93
42.88
34.36
23.6
12.56
2.6
-5.61
-11.87
-16.38
-19.71
-22.56
-25.55
-29.02
-33.05
-37.67
-43.17
-50.06
-58.81
-69.36
-80.9
-92.03
-101.23
-107.5
-110.54
-110.75
-108.81
-105.39
-100.97
-95.82
-90.16
-83.99
-76.8
-67.23
-53.2
-32.56
-4.25
30.51
68
102.94
130.3
147.21
154
153.63
150.24
147.42
147.21
150.15
155.79
163.2
170.95
177.01
178.83
173.96
161.1
140.71
115.12
87.69
61.78
39.8
22.75
10.36
1.34
-6.2
-14.35
-24.78
-38.29
-54.36
-71.13
-85.99
-96.42
-100.83
-98.94
-91.95
-82.03
-71.84
-63.81
-59.43
-58.96
-61.27
-64.47
-66.55
-66.29
-63.61
-59.36
-54.88
-51.16
-48.53
-46.55
-44.56
-42.11
-39.25
-36.57
-34.74
-34.33
-35.49
-38.07
-41.69
-46.18
-51.83
-59.53
-70.55
-86.17
-107.2
-133.53
-163.99
-196.33
-227.53
-254.14
-272.83
-281.06
-277.38
-261.83
-235.57
-200.4
-158.09
-110.18
-58.5
-5.62
45
90.13
128.14
160.03
188.99
218.51
250.05
281.44
307.34
321.1
317.61
295.22
256.37
206.75
153.77
105.01
66.83
43.3
35.47
41.12
55.42
72.56
87.66
98.18
104.26
108.09
112.52
119.45
128.93
138.68
144.39
140.73
122.79
88.42
40.3
-12.95
-58.3
-82.38
-76.95
-43.21
7.66
58.35
92.48
100.93
84.62
52.51
16.39
-14.4
-35.57
-47.13
-50.86
-47.97
-38.71
-23.49
-4.33
14.81
29.13
35.08
32.02
22.51
11.25
3.01
0.61
4.06
10.92
17.76
21.79
22
19.25
15.38
12.11
10.15
9.03
7.56
4.5
-0.9
-8.75
-18.67
-30.03
-42.16
-54.59
-66.96
-79.14
-90.98
-102.27
-112.54
-121.05
-127.04
-129.93
-129.78
-127.36
-124.05
-121.36
-120.35
-121.42
-124.12
-127.57
-130.76
-132.93
-133.59
-132.55
-129.79
-125.55
-120.46
-115.45
-111.68
-110.09
-111.05
-114.12
-118.22
-122.05
-124.58
-125.35
-124.36
-121.89
-118.22
-113.59
-108.35
-103.19
-99.19
-97.38
-98.04
-100
-100.53
-95.94
-82.93
-60.04
-28.31
8.83
46.77
81.07
108.61
127.81
138.52
141.51
138.15
130.4
120.71
111.84
106.18
105.07
108.34
114.48
121.37
127.2
131.18
133.7
135.94
139.16
144.14
150.86
158.59
166.24
172.73
177.18
179.04
177.95
173.66
165.88
154.36
138.99
120.03
98.24
74.86
51.41
29.32
9.54
-7.63
-22.47
-35.43
-46.66
-55.87
-62.52
-66.39
-67.85
-67.93
-67.8
-68.26
-69.47
-71.08
-72.72
-74.3
-76.04
-78.12
-80.29
-81.86
-81.97
-80.15
-76.73
-72.64
-68.98
-66.4
-64.86
-63.68
-61.89
-58.6
-53.27
-45.89
-36.86
-26.93
-16.89
-7.16
2.53
13.18
26.24
42.84
62.97
84.95
105.67
121.54
129.69
129.05
120.66
107.27
92.31
78.81
68.87
63.47
62.86
66.7
74.48
85.5
98.97
113.97
129.25
143.23
154.02
159.63
158.07
147.97
129.26
103.96
76.05
50.39
31.25
20.57
17.27
17.43
16.18
9.79
-2.54
-18.83
-35.87
-50.83
-62.55
-71.23
-77.87
-82.11
-84.03
-83.66
-80.31
-74.26
-66.68
-59.14
-50.91
-40.8
-27.47
-10.31
10.47
33.89
58.25
81.63
101.45
116.88
127.55
133.83
136.52
136.69
134.94
130.75
124.23
114.96
102.96
88.57
73
58.03
45.63
37.07
32.35
30.35
29.23
27.55
24.51
20.59
17.22
15.88
17.03
19.41
20.26
16.1
4.39
-15.88
-43.29
-74.63
-106.17
-135.51
-162.59
-189.66
-220.37
-258.21
-306.24
-364.46
-428.76
-491.11
-541.34
-569.9
-570.75
-543.39
-493.78
-434.05
-376.49
-328.65
-290.78
-256.91
-218.45
-168.63
-105.5
-33.82
34.22
86.31
115.01
120.3
107.6
84.3
56.48
27.5
-3.44
-43.11
-97.26
-166.68
-245.81
-325.12
-394.64
-447.24
-479.74
-471.59
-416.95
-328.35
-231.32
-147.64
-85.49
-41.02
-11.3
11.35
29.32
38.87
37.88
28.64
18.24
13.59
20.22
39.61
70.24
107.41
143.2
171.82
191.32
204.91
217.51
236.07
264.8
304.93
354.19
407.62
461.51
512.81
559.76
597.56
622.08
628.18
613.6
580.89
536.97
491.47
451.26
419.92
370.38
284.84
160.68
14.11
-129.98
-252.53
-338.15
-395.66
-434.43
-460.17
-470.66
-462.04
-434.49
-391.42
-339.49
-286.54
-239.98
-202.75
-175.51
-154.28
-135.05
-115.44
-95.38
-76.91
-62.49
-53.55
-48.77
-46.35
-42.8
-35.49
-23.21
-6.32
13.33
33.35
53.4
74.17
95.62
117.64
139.55
160.75
180.97
199.89
217.14
235.76
258.37
285.27
314.56
343.06
367.94
387.79
402.77
414.85
432.15
461.68
505.27
557.73
608.22
644.59
657.93
645.48
580.72
455.95
282.6
88.5
-94.6
-243.5
-347.09
-403.69
-418.58
-402.74
-366.33
-321.27
-278.76
-246.19
-225.96
-216.09
-212.64
-212.52
-214.41
-214.45
-209.85
-199.91
-185.91
-170.62
-156.92
-146.77
-141.16
-140.05
-140.34
-137.47
-131.34
-123.13
-114.74
-108.19
-104.82
-105.11
-108.8
-113.94
-118.64
-122.03
-123.92
-124.41
-123.93
-122.83
-121.26
-119.3
-116.71
-113.5
-110.21
-107.35
-104.71
-101.98
-98.54
-93.74
-87.11
-78.54
-68.01
-55.16
-42.67
-30.48
-17.4
-1.68
18.26
43.12
72.4
104.77
138.4
171.91
205.31
239.19
274.59
312.81
355.29
403.16
456.27
511.99
564.48
605.88
628.04
625.62
598.52
552.21
495.63
437.81
384.94
339.23
300.12
265.88
235.32
208.15
184.37
163.3
143.29
122.37
99.17
73.79
47.55
22.61
0.84
-16.75
-30.94
-43.22
-54.77
-65.92
-75.98
-83.47
-87.23
-86.54
-81.27
-72.73
-62.63
-52.3
-42.34
-32.71
-22.76
-12.29
-1.24
10.2
20.16
26.89
29.73
29.21
26.36
22.49
17.45
10.86
2.39
-12
-35.1
-66.54
-102.72
-139.22
-171.38
-198.89
-222.31
-242.16
-266.58
-301.58
-347.02
-396.68
-443.04
-478.41
-503.95
-522.41
-535.95
-558.25
-599.29
-658.76
-726.58
-790.51
-838.13
-871.22
-894.2
-910.5
-938.19
-990.3
-1066.06
-1151.67
-1230.36
-1285.13
-1317.63
-1333.27
-1235.27
-974.19
-573.47
-120.01
296.53
588.09
783.99
915.9
1005.14
1064.14
