0
0
0
0
0
0
0
0
0
0
0
0.01
0.01
0
-0.03
-0.05
-0.05
0
0.13
0.36
0.66
1.01
1.37
1.72
2.06
2.4
2.79
3.24
3.8
4.42
5.06
5.66
6.2
6.68
7.15
7.68
8.31
9.14
10.09
11.04
11.88
12.56
13.14
13.76
14.65
15.96
17.91
20.32
22.9
25.38
27.58
29.57
31.68
34.32
37.81
42.54
48.15
54.1
59.83
64.97
69.58
74.14
79.34
85.71
93.76
103
112.62
121.73
129.77
136.75
143.3
150.75
157.77
166.64
177.95
191.79
206.97
220.57
228.25
225.36
208.53
176.87
132.76
80.05
23.07
-34.94
-92.44
-149.16
-205.23
-260.37
-313.74
-363.87
-409.83
-450.91
-486.5
-515.74
-537.23
-549.22
-549.96
-538.37
-514.21
-478.67
-433.88
-382.45
-327.02
-269.84
-212.63
-156.66
-102.95
-52.37
-5.9
35.58
71.43
101.35
125.5
144.38
158.69
169.15
176.37
180.75
182.57
182.07
179.51
175.23
169.65
163.18
156.15
148.81
141.3
133.69
126.02
118.33
110.69
103.16
95.8
88.68
81.83
75.25
68.95
62.95
57.25
51.86
46.78
42.03
37.59
33.45
29.61
26.07
22.81
19.83
17.11
14.67
12.48
10.54
8.83
7.35
6.07
4.97
4.05
3.27
2.62
2.09
1.65
1.3
1.01
0.79
0.61
0.48
0.38
0.3
0.25
0.22
0.21
0.2
0.21
0.23
0.26
0.29
0.32
0.36
0.41
0.45
0.5
0.54
0.6
0.65
0.7
0.76
0.83
0.9
0.97
1.06
1.15
1.26
1.37
1.51
1.65
1.82
2
2.21
2.43
2.68
2.96
3.27
3.61
3.97
4.38
4.82
5.29
5.8
6.35
6.94
7.58
8.25
8.98
9.74
10.55
11.41
12.32
13.26
14.27
15.33
16.46
17.65
18.9
20.18
21.46
22.66
23.72
24.53
24.96
24.89
24.21
22.85
20.76
17.96
14.51
10.51
6.14
1.61
-2.88
-7.1
-10.88
-14.07
-16.56
-18.31
-19.33
-19.64
-19.35
-18.58
-17.44
-16.01
-14.41
-12.67
-10.83
-8.92
-6.92
-4.91
-2.94
-1.03
0.81
2.61
4.42
6.3
8.31
10.5
12.78
15.06
17.3
19.51
21.73
24.06
26.59
29.43
32.71
36.17
39.66
43.08
46.43
49.78
53.32
57.24
61.71
66.86
72.2
77.35
82.06
86.24
90.07
93.85
97.94
102.59
107.86
112.87
116.8
118.99
119.05
116.88
112.47
105.5
94.7
82.66
69.44
54.59
37.73
18.88
-1.38
-22.11
-42.34
-61.35
-78.91
-95.91
-113.34
-132.28
-153.8
-178.67
-206.84
-236.74
-265.06
-287.09
-298.7
-297.22
-282.78
-258.31
-228.43
-197.68
-169.03
-143.45
-120.42
-99.34
-79.91
-62.36
-47.01
-33.89
-22.53
-12.21
-2.4
7.02
15.56
22.52
27.43
30.21
31.28
31.32
31.04
30.92
31.08
31.25
31.04
30.09
28.26
25.61
22.37
18.79
15.06
11.25
7.31
3.13
-1.35
-6.15
-11.17
-16.38
-21.87
-27.94
-34.92
-42.97
-51.74
-60.15
-66.59
-69.3
-67
-59.34
-47.1
-31.95
-15.89
-0.71
12.42
23.1
31.51
38.12
43.42
47.73
51.14
53.65
55.23
55.94
56
55.66
55.15
54.58
54.02
53.48
53.06
52.86
52.96
53.24
53.43
53.14
52.05
50.01
47.08
43.55
39.82
36.26
33.08
30.25
27.52
24.53
21.05
17.15
13.14
9.43
6.29
3.61
0.99
-2.04
-5.76
-10.06
-14.56
-18.86
-22.69
-26.09
-29.31
-32.74
-36.85
-42.08
-48.72
-56.7
-65.33
-73.25
-78.62
-79.71
-75.47
-65.94
-52.32
-36.47
-20.41
-5.67
6.94
17.23
25.36
31.53
35.84
38.33
39.13
38.6
37.38
36.16
35.52
35.7
36.58
37.75
38.77
39.38
39.64
39.78
40.02
40.44
40.81
40.74
39.89
38.13
35.61
32.64
29.53
26.44
23.33
20.06
16.5
12.63
8.53
4.27
-0.08
-4.61
-9.39
-14.5
-19.84
-25.16
-30.14
-34.5
-38.24
-41.7
-45.54
-50.55
-57.26
-65.69
-74.99
-83.66
-89.78
-91.68
-88.41
-80.02
-67.55
-52.63
-36.96
-21.95
-8.49
2.94
12.22
19.45
24.85
28.83
31.85
34.36
36.59
38.56
40.07
40.95
41.18
40.97
40.64
40.5
40.67
41.09
41.57
41.84
41.73
41.11
39.91
38.07
35.52
32.27
28.4
24.13
19.84
15.92
12.62
9.96
7.64
5.14
1.93
-2.27
-7.38
-12.94
-18.35
-23.15
-27.17
-30.62
-33.95
-37.7
-42.4
-48.32
-55.44
-63.21
-70.54
-75.91
-77.76
-75
-67.4
-55.72
-41.46
-26.36
-11.86
1.14
12.3
21.71
29.6
36.2
41.68
46.1
49.45
51.65
52.73
52.87
52.43
51.9
51.69
51.99
52.64
53.28
53.57
53.4
52.88
52.29
51.77
51.22
50.31
48.72
46.28
43.05
39.3
35.36
31.48
27.77
24.18
20.55
16.62
12.18
7.11
1.48
-4.49
-10.4
-15.89
-20.69
-24.73
-28.16
-31.31
-34.58
-38.42
-43.2
-49.14
-56.13
-63.69
-70.82
-76.21
-78.51
-76.7
-70.45
-60.32
-47.59
-33.88
-20.72
-9.12
0.48
8.12
14.02
18.33
21.16
22.59
22.88
22.4
21.6
20.88
20.43
20.29
20.45
20.93
21.84
23.28
25.16
27.24
29.06
30.13
30.02
28.56
25.85
22.27
18.33
14.54
11.21
8.41
5.9
3.27
0.13
-3.7
-8.15
-12.9
-17.64
-22.14
-26.4
-30.65
-35.25
-40.57
-46.91
-54.23
-62.03
-69.27
-74.5
-76.26
-73.57
-66.31
-55.24
-41.84
-27.75
-14.36
-2.52
7.47
15.64
22.1
26.89
29.95
31.27
31.06
29.81
28.19
26.87
26.27
26.46
27.23
28.26
29.33
30.42
31.62
32.93
34.15
34.83
34.48
32.77
29.74
25.77
21.42
17.14
13.09
9.11
4.88
0.1
-5.33
-11.26
-17.4
-23.4
-29.07
-34.4
-39.58
-44.98
-51.01
-58.04
-66.17
-75.01
-83.54
-90.21
-93.3
-91.41
-84.08
-71.98
-56.78
-40.6
-25.29
-11.99
-0.91
8.36
16.42
23.72
30.38
36.25
41.13
44.9
47.6
49.41
50.65
51.57
52.37
53.11
53.8
54.37
54.83
55.21
55.57
55.89
55.98
55.55
54.28
51.95
48.57
44.37
39.73
35
30.51
26.38
22.6
19.02
15.41
11.53
7.2
2.31
-3.09
-8.79
-14.51
-19.97
-25.02
-29.74
-34.41
-39.49
-45.47
-52.68
-61.14
-70.4
-79.51
-87.04
-91.4
-91.23
-85.86
-75.58
-61.59
-45.66
-29.64
-14.93
-2.3
8.11
16.6
23.55
29.36
34.28
38.45
41.91
44.63
46.6
47.8
48.34
48.41
48.3
48.25
48.46
48.99
49.79
50.7
51.52
52.03
52.01
51.3
49.87
47.84
45.47
43.04
40.72
38.5
36.15
33.36
29.92
25.79
21.21
16.55
12.16
8.23
4.74
1.48
-1.87
-5.6
-9.84
-14.5
-19.24
-23.66
-27.39
-30.43
-33.11
-36.11
-40.19
-45.87
-53.18
-61.51
-69.6
-75.87
-78.8
-77.34
-71.24
-61.12
-48.28
-34.3
-20.56
-8.04
2.8
11.84
19.1
24.63
28.46
30.69
31.56
31.38
30.52
29.39
28.36
27.74
27.81
28.64
30.15
32.08
34.03
35.62
36.61
36.9
36.5
35.47
33.88
31.77
29.18
26.18
22.84
19.23
15.42
11.48
7.55
3.78
0.28
-2.96
-6.08
-9.37
-13.12
-17.46
-22.26
-27.22
-31.97
-36.24
-40.06
-43.76
-47.93
-53.13
-59.71
-67.51
-75.72
-82.98
-87.74
-88.6
-84.77
-76.31
-64.08
-49.52
-34.22
-19.59
-6.63
4.22
12.92
19.71
24.88
28.73
31.5
33.38
34.63
35.48
36.12
36.68
37.18
37.59
37.99
38.53
39.42
40.77
42.51
44.32
45.75
46.34
45.82
44.19
41.7
38.77
35.84
33.17
30.72
28.25
25.4
21.96
17.97
13.73
9.59
5.78
2.29
-1.14
-4.84
-9.02
-13.7
-18.64
-23.54
-28.07
-32.11
-35.82
-39.57
-43.94
-49.46
-56.48
-64.94
-74.25
-83.25
-90.35
-93.9
-92.61
-86.02
-74.65
-59.94
-43.81
-28.08
-14.02
-2.14
7.63
15.69
22.41
28
32.6
36.35
39.41
41.93
43.94
45.36
46.04
46
45.49
44.96
44.92
45.67
47.14
48.91
50.36
50.93
50.36
48.76
46.48
44.01
41.68
39.62
37.7
35.64
33.22
30.32
27.02
23.46
19.85
16.31
12.89
9.53
6.14
2.54
-1.46
-5.96
-10.96
-16.27
-21.6
-26.67
-31.38
-35.85
-40.44
-45.63
-51.8
-59.02
-66.91
-74.47
-80.28
-82.76
-80.66
-73.62
-62.29
-48.24
-33.41
-19.55
-7.7
1.86
9.35
15.22
19.8
23.26
25.65
27.06
27.65
27.69
27.49
27.36
27.56
28.2
29.21
30.38
31.47
32.31
32.91
33.36
33.75
34.01
33.92
33.21
31.71
29.48
26.77
23.9
21.08
18.36
15.62
12.7
9.47
5.9
2.06
-1.94
-6
-9.98
-13.77
-17.26
-20.45
-23.46
-26.58
-30.27
-34.97
-40.98
-48.22
-56.13
-63.63
-69.39
-72.13
-70.93
-65.57
-56.48
-44.73
-31.71
-18.81
-7.15
2.65
10.42
16.32
20.61
23.54
25.25
25.9
25.72
25.07
24.37
23.92
23.9
24.29
25.04
26.11
27.58
29.43
31.54
33.58
35.11
35.66
35
33.17
30.46
27.26
23.95
20.75
17.75
14.89
12.06
9.16
6.14
2.96
-0.45
-4.21
-8.41
-13.17
-18.43
-23.94
-29.32
-34.14
-38.16
-41.5
-44.71
-48.61
-54.03
-61.4
-70.43
-80.01
-88.35
-93.51
-93.86
-88.69
-78.36
-64.25
-48.28
-32.41
-18.11
-6.14
3.39
10.81
16.62
21.27
25.13
28.43
31.31
33.77
35.77
37.17
37.97
38.28
38.39
38.65
39.34
40.48
41.92
43.33
44.4
44.92
44.84
44.16
42.9
41.06
38.65
35.72
32.37
28.74
25
21.33
17.86
14.64
11.58
8.38
4.64
0.02
-5.55
-11.78
-18.01
-23.53
-27.88
-31.07
-33.6
-36.23
-39.81
-44.97
-52.09
-61.15
-71.67
-82.57
-92.16
-98.38
-99.37
-94.1
-82.82
-67.13
-49.47
-32.35
-17.53
-5.69
3.44
10.65
16.69
22.02
26.84
31.3
35.68
40.26
45.11
49.84
53.72
55.89
55.96
54.23
51.63
49.32
48.09
48.1
48.86
49.58
49.62
48.69
46.87
44.43
41.53
38.2
34.43
30.3
26.13
22.39
19.47
17.43
15.91
14.2
11.56
7.54
2.21
-3.91
-10.05
-15.56
-20.15
-23.99
-27.53
-31.35
-35.9
-41.49
-48.2
-55.89
-64.15
-72.18
-78.81
-82.68
-82.55
-77.73
-68.4
-55.66
-41.25
-27.03
-14.45
-4.13
4.11
10.99
17.39
23.84
30.37
36.57
41.9
45.94
48.53
49.74
49.67
48.38
45.93
42.6
38.98
35.86
33.93
33.44
34.1
35.25
36.21
36.61
36.36
35.56
34.23
32.25
29.43
25.76
21.46
16.98
12.77
9.11
5.94
2.97
-0.25
-4.01
-8.29
-12.6
-16.12
-17.95
-17.67
-15.61
-12.85
-10.86
-10.91
-13.52
-18.41
-24.64
-31
-36.29
-39.31
-39
-34.54
-25.69
-13.18
1.28
15.35
26.7
33.76
36.22
34.94
31.48
27.48
24.05
21.58
19.88
18.53
17.39
16.65
16.79
18.17
20.67
23.66
26.26
27.82
28.33
28.33
28.52
29.19
29.92
29.78
27.83
23.78
18.23
12.33
7.27
3.53
0.74
-2.17
-6.33
-12.29
-19.74
-27.5
-34.13
-38.49
-40.3
-40.24
-39.65
-40.01
-42.29
-46.77
-53.03
-60.17
-66.98
-72.07
-73.96
-71.29
-63.22
-49.85
-32.44
-13.17
5.34
20.9
32.22
39.15
42.44
43.24
42.68
41.5
40.06
38.44
36.68
34.91
33.38
32.46
32.29
32.73
33.43
33.94
34.02
33.65
32.98
32.11
30.97
29.23
26.58
22.87
18.23
13.04
7.75
2.68
-2.08
-6.53
-10.74
-14.73
-18.54
-22.24
-26.03
-30.16
-34.89
-40.4
-46.69
-53.52
-60.31
-66.18
-69.96
-70.5
-67
-59.32
-48.19
-34.97
-21.36
-8.82
1.72
10
16.11
20.28
22.63
23.18
22.02
19.53
16.42
13.56
11.69
11.19
11.91
13.31
14.66
15.37
15.22
14.34
13.12
12.02
11.21
10.55
9.51
7.5
4.11
-0.66
-6.3
-12.12
-17.43
-21.97
-25.89
-29.67
-33.92
-39.15
-45.72
-53.65
-62.58
-71.56
-79.16
-83.67
-83.63
-78.33
-68.12
-54.29
-38.65
-22.97
-8.57
3.82
13.93
21.75
27.44
31.22
33.48
34.68
35.27
35.52
35.52
35.17
34.34
33.06
31.55
30.17
29.29
29.05
29.32
29.67
29.59
28.72
27
24.63
21.9
18.99
15.89
12.36
8.13
3.05
-2.79
-9.13
-15.62
-21.96
-27.99
-33.7
-39.19
-44.7
-50.58
-57.27
-65.09
-74.04
-83.47
-92.02
-97.87
-99.3
-95.23
-85.7
-71.84
-55.5
-38.62
-22.67
-8.39
4.11
15.09
24.84
33.47
40.92
47.03
51.72
55.05
57.24
58.62
59.49
60.08
60.54
61
61.5
62.08
62.63
63.03
63.05
62.52
61.33
59.49
57.05
54.11
50.79
47.14
43.2
39
34.59
30.07
25.51
20.98
16.45
11.8
6.84
1.38
-4.66
-11.15
-17.77
-24.11
-29.82
-34.79
-39.25
-43.72
-48.94
-55.57
-63.95
-73.83
-84.33
-93.91
-100.76
-103.19
-100.1
-91.34
-77.76
-61.05
-43.2
-26.01
-10.67
2.39
13.3
22.47
30.29
36.95
42.49
46.87
50.13
52.44
54.09
55.34
56.38
57.2
57.72
57.85
57.62
57.26
57.12
57.47
58.3
59.26
59.75
59.14
57.12
53.79
49.6
45.2
41.11
37.62
34.69
32.1
29.53
26.77
23.73
20.51
17.26
14.09
10.93
7.62
3.9
-0.37
-5.26
-10.6
-16.15
-21.61
-26.65
-31.12
-34.99
-38.5
-42.1
-46.42
-52.03
-59.25
-67.93
-77.26
-85.96
-92.39
-95
-92.67
-85.11
-72.93
-57.54
-40.72
-24.2
-9.17
3.8
14.74
23.91
31.62
38.05
43.3
47.4
50.41
52.42
53.5
53.76
53.31
52.35
51.09
49.83
48.8
48.17
47.95
48.03
48.2
48.11
47.43
45.9
43.45
40.22
36.61
33.01
29.73
26.81
24.08
21.26
18.11
14.58
10.82
7.11
3.69
0.68
-1.99
-4.57
-7.41
-10.78
-14.74
-19.11
-23.49
-27.48
-30.85
-33.74
-36.55
-39.89
-44.31
-50.06
-56.85
-63.87
-69.81
-73.18
-72.68
-67.72
-58.52
-46.18
-32.27
-18.38
-5.68
5.16
13.97
20.75
25.56
28.41
29.36
28.69
26.89
24.6
22.47
20.96
20.2
20.05
20.2
20.37
20.41
20.39
20.47
20.78
21.27
21.69
21.64
20.75
18.82
15.84
12.07
7.95
3.95
0.47
-2.32
-4.53
-6.49
-8.67
-11.39
-14.71
-18.32
-21.78
-24.69
-26.96
-28.86
-30.84
-33.44
-37.03
-41.74
-47.34
-53.26
-58.55
-62.11
-62.89
-60.19
-53.87
-44.42
-32.75
-20.05
-7.43
4.14
13.93
21.38
26.23
28.54
28.7
27.34
25.19
22.87
20.75
18.96
17.54
16.52
15.99
16.08
16.86
18.24
19.94
21.55
22.61
22.82
22.07
20.51
18.41
16.06
13.65
11.24
8.74
5.96
2.64
-1.5
-6.64
-12.75
-19.53
-26.37
-32.64
-37.84
-41.89
-45.22
-48.62
-52.85
-58.3
-64.69
-71.08
-76.02
-78.04
-76.05
-69.67
-59.37
-46.29
-31.93
-17.79
-5.01
5.76
14.31
20.75
25.3
28.26
29.88
30.46
30.32
29.75
28.96
28.07
27.11
26.08
25.05
24.2
23.74
23.79
24.28
24.87
25.1
24.52
22.86
20.15
16.67
12.83
9.01
5.47
2.19
-0.99
-4.33
-8.09
-12.43
-17.31
-22.51
-27.69
-32.44
-36.49
-39.82
-42.77
-45.97
-50.15
-55.82
-62.94
-70.74
-77.82
-82.47
-83.14
-79
-70.15
-57.57
-42.83
-27.63
-13.35
-0.84
9.64
18.28
25.46
31.6
36.99
41.79
45.91
49.19
51.4
52.4
52.24
51.24
49.84
48.47
47.49
47.01
47.02
47.37
47.89
48.34
48.41
47.7
45.87
42.8
38.67
33.97
29.31
25.13
21.61
18.58
15.65
12.39
8.48
3.78
-1.64
-7.56
-13.63
-19.44
-24.68
-29.19
-33.13
-36.94
-41.22
-46.54
-53.14
-60.84
-68.92
-76.2
-81.29
-82.87
-80.06
-72.72
-61.53
-47.87
-33.35
-19.44
-7.09
3.36
12.09
19.51
25.94
31.56
36.26
39.86
42.21
43.32
43.48
43.13
42.69
42.43
42.43
42.56
42.73
42.93
43.27
43.8
44.41
44.75
44.44
43.2
41.06
38.33
35.41
32.57
29.86
27.1
24.15
20.96
17.67
14.47
11.47
8.61
5.67
2.41
-1.36
-5.67
-10.36
-15.16
-19.76
-23.9
-27.5
-30.64
-33.66
-37.06
-41.4
-47.06
-54.05
-61.8
-69.13
-74.49
-76.3
-73.49
-65.85
-54.2
-40.14
-25.56
-12.05
-0.54
8.78
16.23
22.27
27.21
31.16
34.05
35.85
36.64
36.68
36.29
35.8
35.47
35.45
35.75
36.29
36.92
37.52
38.05
38.56
39.07
39.49
39.51
38.69
36.73
33.58
29.59
25.29
21.21
17.6
14.46
11.55
8.67
5.73
2.75
-0.21
-3.21
-6.35
-9.71
-13.23
-16.71
-19.89
-22.6
-24.84
-26.91
-29.26
-32.38
-36.63
-42.06
-48.31
-54.68
-60.13
-63.57
-64.06
-61.04
-54.5
-45.03
-33.62
-21.49
-9.72
0.93
10.08
17.56
23.32
27.24
29.22
29.29
27.83
25.52
23.19
21.52
20.83
21.08
21.95
23.11
24.39
25.7
27.09
28.49
29.72
30.47
30.39
29.23
26.97
23.77
20.03
16.18
12.6
9.49
6.82
4.35
1.78
-1.19
-4.68
-8.59
-12.67
-16.51
-19.79
-22.34
-24.27
-25.96
-27.93
-30.78
-35
-40.79
-47.93
-55.66
-62.71
-67.52
-68.66
-65.29
-57.48
-46.26
-33.24
-20.13
-8.21
1.89
10.1
16.65
21.74
25.44
27.74
28.71
28.62
27.94
27.19
26.8
26.92
27.49
28.29
29.11
29.85
30.57
31.38
32.34
33.33
34.01
33.97
32.86
30.56
27.27
23.44
19.52
15.82
12.39
9.12
5.82
2.44
-1
-4.43
-7.87
-11.41
-15.19
-19.29
-23.59
-27.79
-31.56
-34.65
-37.15
-39.49
-42.37
-46.44
-51.95
-58.53
-65.08
-70.06
-71.99
-69.91
-63.71
-54.08
-42.21
-29.38
-16.66
-4.84
5.55
14.17
20.83
25.55
28.56
30.27
31.19
31.79
32.35
32.98
33.62
34.13
34.34
34.17
33.64
32.95
32.34
32.03
32.11
32.48
32.93
33.22
33.12
32.43
31.01
28.81
25.92
22.61
19.21
16.04
13.23
10.67
8.08
5.18
1.8
-2.02
-6.14
-10.35
-14.46
-18.25
-21.59
-24.47
-27.11
-29.99
-33.73
-38.85
-45.44
-53.05
-60.65
-66.92
-70.56
-70.58
-66.58
-58.76
-47.9
-35.17
-21.88
-9.22
1.95
11.2
18.47
23.95
27.96
30.77
32.58
33.57
33.89
33.68
33.07
32.18
31.11
29.98
28.92
28.12
27.77
27.98
28.69
29.54
30.04
29.63
27.99
25.18
21.6
17.82
14.29
11.1
7.98
4.58
0.6
-3.89
-8.6
-13.15
-17.31
-21.07
-24.6
-28.11
-31.85
-36.03
-40.83
-46.39
-52.61
-58.94
-64.34
-67.46
-67.08
-62.48
-53.88
-42.28
-29.17
-16.08
-4.11
6.17
14.67
21.56
27
31.04
33.7
35.02
35.22
34.68
33.85
33.13
32.74
32.66
32.73
32.7
32.47
32.07
31.65
31.3
30.95
30.32
29.08
27
24.15
20.84
17.46
14.26
11.17
7.92
4.25
0.08
-4.3
-8.48
-12.12
-15.22
-18.16
-21.58
-26.05
-31.9
-39.03
-46.83
-54.3
-60.19
-63.2
-62.35
-57.26
-48.36
-36.74
-23.97
-11.51
-0.41
8.87
16.41
22.49
27.36
31.16
33.89
35.59
36.38
36.47
36.09
35.44
34.63
33.74
32.85
32.08
31.55
31.37
31.63
32.3
33.19
33.92
33.97
32.82
30.26
26.47
22.06
17.76
14.2
11.56
9.6
7.81
5.59
2.57
-1.41
-6.24
-11.61
-17.03
-22
-26.09
-29.18
-31.56
-33.83
-36.74
-40.81
-45.98
-51.6
-56.46
-59.22
-58.76
-54.6
-47.04
-37.03
-25.94
-15.04
-5.18
3.3
10.47
16.56
21.58
25.38
27.65
28.24
27.37
25.66
23.97
23.05
23.21
24.29
25.7
26.89
27.51
27.69
27.84
28.35
29.32
30.4
31
30.52
28.7
25.68
21.92
17.98
14.32
11.17
8.59
6.43
4.41
2.19
-0.51
-3.84
-7.66
-11.62
-15.34
-18.62
-21.52
-24.4
-27.69
-31.8
-37.04
-43.55
-51.24
-59.61
-67.59
-73.62
-76.02
-73.63
-66.29
-55.03
-41.62
-28.01
-15.59
-4.98
3.84
11.12
17.01
21.52
24.61
26.43
27.36
27.96
28.71
29.86
31.34
32.9
34.2
35
35.32
35.35
35.39
35.67
36.2
36.76
36.99
36.58
35.38
33.43
30.85
27.83
24.5
21.03
17.64
14.57
11.92
9.55
7.12
4.16
0.38
-4.19
-9.15
-13.93
-18.02
-21.21
-23.74
-26.21
-29.37
-33.88
-40.06
-47.63
-55.71
-62.82
-67.34
-67.88
-63.86
-55.62
-44.34
-31.63
-18.93
-7.24
2.97
11.66
18.97
24.96
29.7
33.23
35.59
36.89
37.23
36.75
35.63
34.14
32.59
31.27
30.32
29.79
29.58
29.57
29.64
29.67
29.54
29.06
28.06
26.41
24.15
21.48
18.75
16.32
14.37
12.84
11.38
9.41
6.48
2.43
-2.45
-7.53
-12.07
-15.55
-17.89
-19.48
-21.08
-23.5
-27.32
-32.74
-39.38
-46.27
-52.06
-55.35
-55.08
-50.86
-43.1
-32.88
-21.59
-10.52
-0.58
7.76
14.38
19.34
22.65
24.3
24.29
22.79
20.2
17.13
14.23
12.04
10.84
10.56
11.02
11.94
13.12
14.41
15.67
16.65
17.04
16.55
15.06
12.73
9.97
7.27
4.98
3.08
1.27
-0.96
-3.98
-7.84
-12.16
-16.38
-20
-22.93
-25.54
-28.5
-32.49
-37.82
-44.26
-51.05
-57.04
-61.01
-61.91
-59.17
-52.77
-43.3
-31.81
-19.58
-7.79
2.72
11.49
18.42
23.59
27.13
29.19
29.95
29.65
28.56
26.99
25.22
23.46
21.94
20.84
20.35
20.56
21.41
22.66
23.95
24.89
25.17
24.62
23.19
20.95
18.05
14.7
11.13
7.49
3.84
0.1
-3.85
-8.08
-12.53
-17.02
-21.33
-25.33
-29.06
-32.76
-36.83
-41.73
-47.81
-55.01
-62.6
-69.26
-73.27
-73.18
-68.35
-59.32
-47.55
-34.85
-22.67
-11.71
-1.98
6.83
14.92
22.11
28.1
32.62
35.66
37.45
38.34
38.65
38.58
38.33
38.02
37.78
37.64
37.62
37.77
38.15
38.74
39.43
39.86
39.57
38.13
35.46
31.79
27.61
23.5
19.78
16.55
13.66
10.81
7.71
4.11
-0.12
-4.94
-10.14
-15.32
-20.11
-24.23
-27.72
-30.85
-34.07
-37.95
-42.98
-49.46
-57.28
-65.67
-73.23
-78.21
-78.99
-74.8
-65.95
-53.79
-40.18
-26.82
-14.81
-4.52
4.16
11.53
17.86
23.31
28.03
32.13
35.68
38.61
40.77
42.01
42.34
42.03
41.5
41.17
41.37
42.23
43.71
45.59
47.59
49.34
50.41
50.46
49.26
46.9
43.74
40.32
37.18
34.58
32.45
30.4
28.03
25.09
21.68
18.18
15.01
12.32
9.88
7.19
3.74
-0.68
-5.81
-11.1
-16.01
-20.2
-23.71
-26.83
-30.03
-33.78
-38.55
-44.68
-52.15
-60.42
-68.31
-74.18
-76.43
-74.03
-66.93
-56.14
-43.31
-30.19
-18.13
-7.79
0.81
7.99
14.17
19.63
24.38
28.31
31.18
32.9
33.58
33.54
33.24
33.08
33.3
33.93
34.89
36.05
37.32
38.61
39.81
40.67
40.94
40.38
38.89
36.63
33.91
31.08
28.42
26.04
23.88
21.77
19.55
17.12
14.5
11.81
9.21
6.82
4.62
2.48
0.21
-2.35
-5.23
-8.29
-11.35
-14.22
-16.94
-19.71
-22.9
-26.87
-31.82
-37.56
-43.51
-48.68
-51.93
-52.25
-49.07
-42.44
-33.1
-22.17
-10.9
-0.33
8.81
16.15
21.56
25.02
26.63
26.64
25.47
23.69
21.87
20.44
19.66
19.57
20.09
21.07
22.36
23.85
25.42
26.94
28.24
29.07
29.19
28.36
26.48
23.61
20.01
16.05
12.14
8.57
5.49
2.85
0.51
-1.75
-4.17
-6.93
-10.07
-13.41
-16.67
-19.51
-21.75
-23.44
-24.93
-26.67
-29.17
-32.82
-37.78
-43.89
-50.54
-56.66
-60.93
-62.06
-59.31
-52.77
-43.37
-32.55
-21.72
-11.87
-3.41
3.68
9.55
14.31
17.9
20.25
21.41
21.63
21.35
21.05
21.1
21.67
22.71
23.95
25.11
25.94
26.41
26.59
26.61
26.51
26.23
25.59
24.46
22.74
20.43
17.63
14.47
11.15
7.9
4.98
2.51
0.45
-1.51
-3.79
-6.78
-10.59
-15.04
-19.72
-24.15
-27.99
-31.14
-33.74
-36.15
-38.88
-42.47
-47.33
-53.54
-60.62
-67.55
-72.88
-75.25
-73.7
-68.06
-58.93
-47.46
-35
-22.73
-11.49
-1.77
6.28
12.7
17.68
21.54
24.63
27.26
29.54
31.44
32.87
33.72
34.07
34.14
34.2
34.49
35.09
35.91
36.78
37.56
38.15
38.52
38.58
38.2
37.17
35.38
32.93
30.11
27.32
24.82
22.62
20.49
18.1
15.29
12.1
8.8
5.59
2.5
-0.68
-4.25
-8.37
-12.98
-17.73
-22.22
-26.18
-29.52
-32.45
-35.35
-38.75
-43.12
-48.78
-55.61
-62.94
-69.58
-74.05
-75.02
-71.73
-64.29
-53.59
-41.09
-28.29
-16.35
-5.87
3.08
10.7
17.25
22.84
27.49
31.15
33.86
35.8
37.22
38.34
39.25
39.89
40.13
39.91
39.34
38.71
38.35
38.43
38.94
39.53
39.77
39.3
37.92
35.74
33.02
30.11
27.29
24.77
22.61
20.78
19.08
17.29
15.17
12.62
9.7
6.58
3.46
0.38
-2.75
-6.17
-10.01
-14.24
-18.64
-22.86
-26.54
-29.48
-31.72
-33.58
-35.6
-38.42
-42.53
-48.06
-54.6
-61.26
-66.79
-69.96
-69.85
-66.09
-58.87
-48.9
-37.22
-24.96
-13.19
-2.74
5.94
12.69
17.61
20.92
22.85
23.64
23.55
22.95
22.21
21.67
21.55
21.91
22.65
23.65
24.79
25.97
27.11
28.12
28.9
29.35
29.39
28.93
27.95
26.39
24.23
21.56
18.57
15.54
12.72
10.26
8.1
6.01
3.68
0.94
-2.22
-5.56
-8.7
-11.33
-13.4
-15.09
-16.78
-18.85
-21.59
-25.1
-29.37
-34.23
-39.32
-44.02
-47.43
-48.59
-46.79
-41.85
-34.23
-24.91
-14.98
-5.33
3.48
11.15
17.47
22.22
25.19
26.34
25.89
24.31
22.2
20.08
18.32
17.09
16.44
16.38
16.86
17.82
19.1
20.47
21.61
22.22
22.04
20.93
18.92
16.2
13.09
9.91
6.89
4.09
1.4
-1.34
-4.31
-7.56
-11.05
-14.64
-18.14
-21.42
-24.45
-27.42
-30.64
-34.55
-39.41
-45.18
-51.35
-57
-61
-62.4
-60.61
-55.61
-47.88
-38.23
-27.61
-16.96
-7.03
1.59
8.64
14.04
17.91
20.43
21.84
22.36
22.28
21.93
21.68
21.75
22.2
22.92
23.7
24.34
24.81
25.18
25.56
25.98
26.31
26.29
25.62
24.1
21.7
18.62
15.17
11.68
8.39
5.32
2.28
-1.04
-4.9
-9.42
-14.42
-19.54
-24.3
-28.36
-31.61
-34.28
-36.89
-40.11
-44.56
-50.57
-57.91
-65.68
-72.49
-76.75
-77.2
-73.32
-65.51
-54.87
-42.82
-30.64
-19.15
-8.74
0.51
8.63
15.64
21.48
26.19
29.86
32.62
34.67
36.16
37.19
37.86
38.25
38.4
38.36
38.24
38.14
38.21
38.54
39.09
39.74
40.21
40.2
39.42
37.75
35.16
31.82
28.03
24.14
20.51
17.36
14.65
12.15
9.46
6.21
2.24
-2.26
-6.9
-11.23
-15.03
-18.39
-21.68
-25.45
-30.17
-36.14
-43.31
-51.22
-58.96
-65.23
-68.61
-67.95
-62.85
-53.82
-42.21
-29.71
-17.83
-7.46
1.2
8.45
14.67
20.05
24.54
27.97
30.21
31.42
31.94
32.24
32.7
33.42
34.31
35.17
35.79
36.17
36.45
36.85
37.43
38.11
38.62
38.66
37.94
36.36
33.92
30.79
27.22
23.55
20.1
17.05
14.42
11.97
9.39
6.42
3
-0.7
-4.34
-7.58
-10.31
-12.64
-14.9
-17.53
-20.88
-25.16
-30.35
-36.14
-41.96
-47.01
-50.36
-51.19
-48.95
-43.6
-35.61
-25.91
-15.61
-5.72
3.12
10.63
16.78
21.59
25.02
26.94
27.35
26.47
24.73
22.7
20.87
19.55
18.86
18.79
19.29
20.31
21.75
23.38
24.83
25.63
25.44
24.09
21.73
18.75
15.66
12.86
10.52
8.54
6.53
4.12
1.07
-2.53
-6.35
-9.91
-12.91
-15.33
-17.48
-19.91
-23.08
-27.31
-32.53
-38.26
-43.76
-48.04
-50.22
-49.6
-45.92
-39.4
-30.73
-20.81
-10.54
-0.59
8.67
17.07
24.51
30.71
35.32
37.99
38.59
37.33
34.72
31.4
27.93
24.72
21.92
19.6
17.75
16.39
15.56
15.19
15.16
15.21
15.03
14.36
13.08
11.22
9
6.67
4.39
2.07
-0.6
-3.94
-8.11
-12.95
-18.02
-22.76
-26.77
-29.94
-32.53
-35.01
-37.98
-42.01
-47.44
-54.21
-61.65
-68.57
-73.4
-74.71
-71.68
-64.44
-54.02
-41.96
-29.76
-18.52
-8.72
-0.37
6.76
12.9
18.23
22.79
26.55
29.52
31.73
33.27
34.34
35.1
35.66
36.05
36.25
36.25
36.11
35.97
35.97
36.14
36.39
36.5
36.22
35.3
33.6
31.05
27.79
24.09
20.39
17.09
14.37
12.04
9.64
6.62
2.64
-2.23
-7.57
-12.82
-17.56
-21.64
-25.14
-28.35
-31.65
-35.51
-40.38
-46.61
-54.08
-62.07
-69.28
-74.13
-75.27
-72.04
-64.68
-54.16
-41.87
-29.14
-17.02
-6.14
3.31
11.4
18.37
24.47
29.83
34.41
38.05
40.61
42.1
42.73
42.88
42.94
43.14
43.58
44.17
44.81
45.46
46.13
46.86
47.61
48.21
48.33
47.66
45.94
43.19
39.63
35.66
31.68
27.94
24.5
21.19
17.79
14.07
9.92
5.36
0.52
-4.4
-9.23
-13.83
-18.18
-22.31
-26.39
-30.62
-35.33
-40.84
-47.33
-54.65
-62.11
-68.54
-72.54
-72.9
-69.09
-61.4
-50.9
-38.99
-26.97
-15.67
-5.46
3.63
11.6
18.37
23.77
27.67
30.14
31.47
32.08
32.41
32.73
33.15
33.61
34.02
34.25
34.27
34.11
33.81
33.48
33.15
32.8
32.34
31.56
30.23
28.21
25.54
22.45
19.22
16.1
13.11
10.12
6.96
3.48
-0.26
-4.07
-7.72
-11.03
-13.94
-16.47
-18.7
-20.84
-23.2
-26.23
-30.37
-35.78
-42.16
-48.62
-53.89
-56.69
-56.1
-51.88
-44.46
-34.81
-24.13
-13.55
-3.9
4.34
11
16.1
19.76
22.06
23.04
22.81
21.61
19.89
18.18
16.99
16.6
17
17.99
19.28
20.61
21.81
22.76
23.31
23.29
22.56
21.01
18.71
15.8
12.53
9.1
5.72
2.49
-0.55
-3.42
-6.17
-8.84
-11.46
-14.01
-16.54
-19.16
-22.12
-25.71
-30.13
-35.38
-41.08
-46.5
-50.65
-52.56
-51.49
-47.25
-40.18
-31.15
-21.21
-11.38
-2.38
5.41
11.88
17.01
20.74
22.97
23.7
23.09
21.54
19.58
17.71
16.33
15.67
15.78
16.62
18.02
19.71
21.34
22.55
23.01
22.54
21.12
18.88
16.1
13.09
10.09
7.22
4.43
1.54
-1.65
-5.21
-9.04
-12.95
-16.72
-20.34
-23.99
-28.03
-32.89
-38.77
-45.44
-52.23
-58.06
-61.72
-62.22
-59.12
-52.68
-43.69
-33.26
-22.41
-11.85
-1.98
7.02
14.93
21.44
26.21
29.09
30.22
30.1
29.38
28.63
28.18
28
27.92
27.81
27.69
27.72
28.04
28.64
29.29
29.63
29.32
28.17
26.17
23.56
20.64
17.77
15.21
13.05
11.15
9.19
6.75
3.46
-0.81
-5.84
-11.12
-16
-19.92
-22.73
-24.72
-26.61
-29.27
-33.41
-39.27
-46.45
-53.96
-60.48
-64.65
-65.45
-62.41
-55.73
-46.17
-34.87
-23.07
-11.81
-1.82
6.65
13.7
19.67
24.87
29.52
33.6
36.93
39.31
40.67
41.08
40.77
40.02
39.07
38.07
37.06
36.1
35.35
35.02
35.3
36.23
37.57
38.84
39.45
38.98
37.25
34.41
30.79
26.7
22.4
18.01
13.7
9.62
5.9
2.52
-0.77
-4.39
-8.65
-13.55
-18.76
-23.74
-28.06
-31.73
-35.18
-39.24
-44.68
-51.91
-60.67
-69.96
-78.21
-83.7
-85.01
-81.47
-73.36
-61.81
-48.43
-34.8
-22.11
-11.02
-1.66
6.07
12.43
17.63
21.92
25.55
28.73
31.59
34.18
36.43
38.24
39.53
40.31
40.66
40.75
40.8
41.02
41.48
42.12
42.7
42.94
42.58
41.54
39.92
37.9
35.67
33.29
30.74
27.98
25
21.91
18.78
15.68
12.62
9.59
6.53
3.38
0.02
-3.7
-7.78
-12.03
-16.05
-19.44
-22.05
-24.14
-26.38
-29.58
-34.38
-41.02
-49.19
-58.09
-66.55
-73.16
-76.54
-75.7
-70.31
-60.93
-48.94
-36.05
-23.88
-13.48
-5.27
0.9
5.46
8.9
11.7
14.24
16.74
19.21
21.44
23.16
24.24
24.8
25.16
25.73
26.69
28.04
29.53
30.91
32.05
32.94
33.62
34.06
34.12
33.6
32.41
30.58
28.3
25.84
23.43
21.17
19.04
16.94
14.73
12.32
9.65
6.73
3.54
0.13
-3.42
-7
-10.38
-13.42
-16.06
-18.44
-20.9
-23.87
-27.75
-32.68
-38.46
-44.51
-49.92
-53.65
-54.76
-52.69
-47.37
-39.3
-29.38
-18.67
-8.16
1.42
9.62
16.2
21.09
24.27
25.84
26.03
25.22
23.93
22.63
21.73
21.39
21.54
22.04
22.71
23.47
24.31
25.27
26.26
27.18
27.76
27.75
26.88
25.01
22.17
18.6
14.67
10.81
7.37
4.46
1.91
-0.64
-3.57
-7.09
-11.17
-15.5
-19.68
-23.32
-26.23
-28.4
-30.11
-31.86
-34.26
-37.89
-43.01
-49.36
-56.01
-61.57
-64.54
-63.81
-59.04
-50.7
-39.94
-28.11
-16.41
-5.69
3.62
11.37
17.55
22.16
25.24
26.88
27.28
26.82
25.94
25.12
24.68
24.75
25.27
26.1
27.07
28.09
29.12
30.12
30.97
31.5
31.45
30.66
29.04
26.66
23.66
20.31
16.88
13.59
10.61
7.95
5.54
3.22
0.82
-1.81
-4.81
-8.28
-12.24
-16.58
-21.04
-25.32
-29.14
-32.42
-35.42
-38.6
-42.59
-47.88
-54.51
-61.93
-68.96
-74.04
-75.66
-72.92
-65.75
-55
-42.1
-28.63
-15.86
-4.62
4.78
12.37
18.38
23.12
26.88
29.92
32.35
34.21
35.46
36.07
36.13
35.76
35.15
34.4
33.55
32.59
31.54
30.47
29.52
28.82
28.38
28.1
27.68
26.76
25.05
22.45
19.16
15.64
12.33
9.5
7.19
5.24
3.41
1.57
-0.33
-2.33
-4.53
-7.07
-10.13
-13.65
-17.42
-21.07
-24.3
-27.11
-29.86
-33.16
-37.58
-43.32
-49.94
-56.38
-61.24
-63.21
-61.53
-56.17
-47.76
-37.33
-26.02
-14.79
-4.38
4.66
11.99
17.45
21.07
23.09
23.89
23.89
23.5
22.98
22.45
21.94
21.44
21
20.85
21.34
22.83
25.4
28.78
32.3
35.17
36.74
36.79
35.49
33.18
30.2
26.73
22.89
18.84
14.84
11.13
7.81
4.67
1.4
-2.25
-6.24
-10.22
-13.8
-16.9
-19.9
-23.59
-28.76
-35.7
-43.88
-52.03
-58.45
-61.63
-60.68
-55.54
-46.97
-36.18
-24.54
-13.2
-3.01
5.58
12.46
17.74
21.62
24.34
26.13
27.14
27.56
27.59
27.44
27.23
27
26.65
26.03
25.14
24.15
23.37
23.12
23.44
24.01
24.26
23.63
21.8
18.92
15.42
11.87
8.63
5.79
3.17
0.49
-2.54
-6.02
-9.92
-14
-17.92
-21.31
-23.94
-25.87
-27.58
-29.83
-33.43
-38.84
-45.93
-53.89
-61.41
-67.01
-69.46
-68.05
-62.79
-54.33
-43.75
-32.23
-20.84
-10.31
-1.02
6.94
13.64
19.25
23.9
27.66
30.62
32.8
34.28
35.12
35.47
35.46
35.24
34.93
34.6
34.29
34.04
33.86
33.77
33.7
33.5
32.95
31.87
30.18
27.94
25.31
22.54
19.84
17.28
14.87
12.47
9.89
6.91
3.4
-0.67
-5.17
-9.88
-14.49
-18.78
-22.62
-26.07
-29.37
-32.9
-37.12
-42.37
-48.74
-55.88
-62.88
-68.43
-71.12
-69.87
-64.36
-55.11
-43.38
-30.68
-18.36
-7.3
2.18
10.14
16.81
22.32
26.74
30.03
32.16
33.29
33.66
33.65
33.6
33.71
34.01
34.39
34.69
34.84
34.92
35.05
35.31
35.62
35.74
35.36
34.31
32.58
30.34
27.83
25.21
22.53
19.79
16.97
14.18
11.58
9.22
7.01
4.65
1.79
-1.76
-5.86
-10.11
-14.05
-17.38
-20.18
-22.86
-26.02
-30.14
-35.5
-42
-49.16
-56.21
-62.13
-65.82
-66.39
-63.35
-56.79
-47.38
-36.19
-24.42
-13.16
-3.19
5.06
11.56
16.51
20.21
22.88
24.67
25.69
26.15
26.37
26.74
27.53
28.79
30.34
31.9
33.32
34.55
35.66
36.6
37.18
37.21
36.53
35.15
33.24
30.96
28.45
25.75
22.93
20.08
17.28
14.51
11.61
8.36
4.57
0.24
-4.44
-9.21
-13.77
-17.97
-21.73
-25.18
-28.63
-32.6
-37.64
-44.11
-51.83
-59.83
-66.6
-70.4
-69.97
-64.92
-55.88
-44.29
-31.81
-19.87
-9.3
-0.31
7.28
13.74
19.17
23.49
26.53
28.24
28.81
28.68
28.34
28.13
28.14
28.3
28.49
28.72
29.13
29.87
30.95
32.14
33.11
33.46
32.97
31.54
29.29
26.43
23.23
19.97
16.89
14.06
11.41
8.71
5.71
2.24
-1.68
-5.9
-10.16
-14.21
-17.89
-21.12
-23.95
-26.61
-29.52
-33.24
-38.3
-44.88
-52.56
-60.29
-66.52
-69.66
-68.61
-63.1
-53.79
-42.02
-29.34
-17.06
-5.99
3.58
11.68
18.44
23.91
28.1
31.02
32.85
33.86
34.37
34.64
34.79
34.83
34.69
34.35
33.84
33.3
32.92
32.87
33.24
33.93
34.62
34.83
34.06
31.98
28.62
24.35
19.73
15.31
11.4
8.05
5.03
2.08
-1
-4.25
-7.56
-10.75
-13.68
-16.32
-18.8
-21.4
-24.5
-28.48
-33.58
-39.82
-46.77
-53.64
-59.32
-62.59
-62.47
-58.5
-50.85
-40.37
-28.3
-16
-4.53
5.47
13.81
20.55
25.81
29.65
32.03
32.99
32.68
31.52
30.04
28.74
27.98
27.82
28.1
28.53
28.85
28.94
28.81
28.59
28.36
28.14
27.78
27.06
25.79
23.91
21.5
18.77
15.89
12.93
9.86
6.6
3.15
-0.33
-3.63
-6.54
-9.01
-11.2
-13.47
-16.14
-19.45
-23.44
-27.94
-32.66
-37.15
-40.9
-43.35
-43.94
-42.29
-38.3
-32.24
-24.64
-16.3
-8.04
-0.61
5.37
9.47
11.47
11.34
9.28
5.69
1.2
-3.34
-6.96
-8.75
-8.1
-5.02
-0.15
5.42
10.5
14.21
16.23
16.75
16.16
14.81
12.84
10.24
7.02
3.28
-0.78
-4.94
-9.1
-13.23
-17.44
-21.83
-26.55
-31.79
-37.75
-44.52
-52.01
-59.82
-67.14
-72.89
-75.86
-75.04
-69.87
-60.47
-47.69
-32.93
-17.86
-3.93
7.92
17.4
24.78
30.59
35.3
39.2
42.34
44.74
46.4
47.48
48.06
48.2
47.87
46.97
45.51
43.58
41.42
39.3
37.43
35.94
34.78
33.72
32.32
30.03
26.26
20.65
13.35
5.08
-3.11
-10.18
-15.57
-19.42
-22.45
-25.72
-30.14
-36.29
-44.27
-53.7
-63.76
-73.17
-80.35
-83.75
-82.27
-75.72
-64.97
-51.68
-37.78
-24.83
-13.66
-4.36
3.36
9.84
15.21
19.38
22.25
23.85
24.41
24.33
24.02
23.83
24.03
24.75
26.05
27.84
29.92
32.06
33.98
35.5
36.49
36.86
36.51
35.24
32.94
29.56
25.33
20.72
16.32
12.57
9.58
7.05
4.33
0.73
-4.22
-10.64
-18.23
-26.36
-34.14
-40.58
-44.62
-45.41
-42.44
-35.77
-26.1
-14.63
-2.75
8.35
17.93
25.82
32.25
37.52
41.74
44.76
46.22
45.89
43.93
40.94
37.81
35.35
34.01
33.74
34.13
34.64
34.86
34.59
33.81
32.55
30.85
28.7
26.1
23.05
19.6
15.8
11.74
7.47
3.1
-1.29
-5.65
-9.95
-14.24
-18.55
-23.06
-28.01
-33.78
-40.81
-49.33
-59.13
-69.3
-78.28
-84.19
-85.47
-81.43
-72.56
-60.33
-46.66
-33.3
-21.3
-11.02
-2.34
4.99
11.11
15.99
19.61
22.07
23.65
24.69
25.41
25.85
25.92
25.6
25.08
24.74
25.05
26.21
28.06
30.02
31.34
31.41
30.03
27.48
24.36
21.29
18.64
16.33
14
11.16
7.52
3.13
-1.71
-6.55
-11.03
-15.09
-18.91
-22.81
-27.19
-32.35
-38.52
-45.71
-53.67
-61.64
-68.46
-72.68
-72.94
-68.51
-59.56
-47.21
-33.18
-19.24
-6.7
3.79
12.26
19.07
24.57
28.99
32.38
34.79
36.33
37.19
37.54
37.46
36.91
35.88
34.48
32.94
31.68
31.05
31.22
32.11
33.36
34.42
34.72
33.83
31.61
28.24
24.16
19.89
15.79
11.96
8.27
4.52
0.57
-3.53
-7.59
-11.4
-14.86
-18
-21.13
-24.67
-29.15
-34.96
-42.17
-50.22
-57.98
-63.92
-66.56
-64.93
-58.9
-49.2
-37.17
-24.33
-11.98
-0.95
8.45
16.31
22.89
28.36
32.74
35.9
37.73
38.35
38.12
37.55
37.05
36.78
36.62
36.37
35.99
35.78
36.21
37.64
40.05
42.88
45.25
46.27
45.51
43.09
39.68
36.17
33.34
31.52
30.58
29.96
28.98
27.09
24.05
19.99
15.25
10.2
5.12
0.06
-5.14
-10.81
-17.28
-24.84
-33.46
-42.73
-51.7
-59.07
-63.47
-63.86
-59.95
-52.24
-41.88
-30.31
-18.77
-8.12
1.25
9.23
15.77
20.8
24.19
25.93
26.19
25.38
23.98
22.48
21.17
20.21
19.67
19.66
20.39
22.05
24.63
27.79
30.89
33.15
33.93
32.97
30.37
26.57
22.04
17.22
12.41
7.81
3.53
-0.38
-3.9
-7.09
-9.97
-12.59
-15.01
-17.35
-19.85
-22.77
-26.37
-30.73
-35.68
-40.68
-44.93
-47.47
-47.43
-44.29
-38.12
-29.57
-19.69
-9.69
-0.53
7.16
13.13
17.28
19.6
20.04
18.7
15.88
12.15
8.25
4.87
2.44
1.06
0.58
0.76
1.35
2.19
3.05
3.67
3.72
2.87
0.99
-1.86
-5.35
-9.06
-12.55
-15.51
-17.83
-19.66
-21.38
-23.54
-26.8
-31.61
-38.02
-45.51
-52.98
-59.02
-62.25
-61.74
-57.28
-49.37
-39.11
-27.79
-16.64
-6.54
2.08
9.11
14.64
18.81
21.68
23.26
23.63
22.98
21.67
20.12
18.65
17.43
16.44
15.54
14.69
13.91
13.28
12.79
12.17
10.99
8.78
5.31
0.76
-4.33
-9.23
-13.38
-16.6
-19.18
-21.73
-25.02
-29.64
-35.79
-43.13
-50.73
-57.28
-61.32
-61.64
-57.62
-49.51
-38.28
-25.39
-12.32
-0.21
10.23
18.75
25.36
30.13
33.18
34.66
34.78
33.88
32.33
30.5
28.7
27.11
25.85
24.89
24.17
23.58
23.01
22.3
21.23
19.51
16.88
13.16
8.44
3.08
-2.34
-7.28
-11.49
-15.21
-19.05
-23.74
-29.76
-37.09
-45.09
-52.61
-58.39
-61.26
-60.47
-55.84
-47.81
-37.38
-25.79
-14.23
-3.58
5.8
13.95
21.11
27.43
32.86
37.1
39.86
40.96
40.46
38.66
35.98
32.89
29.83
27.13
24.96
23.31
21.98
20.59
18.72
16.06
12.47
8.05
3.17
-1.77
-6.42
-10.65
-14.66
-18.93
-24.06
-30.52
-38.39
-47.14
-55.6
-62.24
-65.54
-64.51
-58.97
-49.65
-37.89
-25.23
-12.92
-1.64
8.46
17.54
25.78
33.18
39.52
44.54
48.11
50.35
51.57
52.16
52.45
52.59
52.61
52.54
52.47
52.59
53.02
53.8
54.69
55.3
55.13
53.81
51.21
47.49
43.06
38.38
33.83
29.55
25.38
20.96
15.91
10.07
3.58
-3.11
-9.46
-15.09
-19.98
-24.5
-29.27
-34.93
-41.97
-50.48
-60.02
-69.6
-77.7
-82.69
-83.21
-78.71
-69.7
-57.6
-44.24
-31.22
-19.45
-9.1
0.12
8.45
15.86
21.97
26.33
28.78
29.58
29.36
28.84
28.57
28.74
29.17
29.55
29.69
29.62
29.58
29.88
30.62
31.67
32.58
32.85
32.07
30.08
27.03
23.28
19.3
15.46
12
8.9
5.95
2.81
-0.78
-4.92
-9.48
-14.08
-18.33
-21.96
-24.93
-27.44
-29.96
-33.02
-37.18
-42.75
-49.64
-57.23
-64.3
-69.38
-71.03
-68.41
-61.54
-51.25
-38.88
-25.89
-13.4
-2.06
7.88
16.35
23.25
28.44
31.75
33.24
33.19
32.23
31.03
30.15
29.85
30.1
30.65
31.32
32.04
32.84
33.75
34.61
35.14
35.03
34.12
32.43
30.11
27.36
24.3
20.99
17.55
14.14
10.93
7.94
4.99
1.71
-2.22
-6.9
-12.07
-17.28
-22.03
-26.12
-29.67
-33.1
-36.95
-41.67
-47.51
-54.46
-62.24
-70.31
-77.77
-83.41
-85.92
-84.23
-77.92
-67.47
-54.17
-39.69
-25.58
-12.74
-1.43
8.61
17.67
25.82
32.83
38.4
42.36
44.85
46.29
47.18
47.99
48.94
50.05
51.19
52.15
52.73
52.89
52.71
52.34
51.91
51.43
50.72
49.49
47.49
44.59
40.88
36.58
31.94
27.16
22.41
17.8
13.5
9.61
6.09
2.76
-0.7
-4.53
-8.83
-13.44
-18.05
-22.34
-26.15
-29.55
-32.89
-36.69
-41.49
-47.65
-55.05
-62.98
-70.14
-74.93
-75.96
-72.49
-64.72
-53.7
-40.94
-27.98
-16.04
-5.75
2.65
9.31
14.46
18.33
21.14
23
24.05
24.44
24.42
24.23
24.12
24.24
24.6
25.1
25.63
26.17
26.72
27.33
27.9
28.27
28.13
27.24
25.51
23.05
20.12
17.05
14.07
11.23
8.47
5.64
2.63
-0.6
-3.95
-7.25
-10.32
-13.02
-15.31
-17.27
-19.13
-21.26
-24.05
-27.85
-32.78
-38.53
-44.3
-48.9
-51.09
-49.95
-45.25
-37.44
-27.6
-16.94
-6.54
2.87
10.88
17.32
22.09
25.14
26.49
26.31
24.95
22.88
20.6
18.58
17.11
16.38
16.39
16.99
17.93
18.91
19.63
19.85
19.42
18.26
16.4
13.86
10.72
7.06
3.03
-1.23
-5.56
-9.91
-14.27
-18.67
-23.07
-27.35
-31.36
-35.04
-38.56
-42.28
-46.65
-51.96
-58.1
-64.43
-69.83
-72.98
-72.74
-68.58
-60.63
-49.77
-37.25
-24.39
-12.25
-1.5
7.61
15.08
21.07
25.8
29.52
32.41
34.59
36.07
36.8
36.76
36.02
34.79
33.42
32.24
31.47
31.14
31.11
31.1
30.79
29.93
28.38
26.16
23.31
19.96
16.15
11.95
7.43
2.71
-2.06
-6.76
-11.29
-15.65
-19.84
-23.92
-27.96
-32.13
-36.76
-42.2
-48.66
-55.91
-63.16
-69.09
-72.25
-71.5
-66.41
-57.36
-45.43
-32.02
-18.52
-5.98
4.98
14.2
21.82
28.1
33.3
37.57
40.87
43.13
44.3
44.53
44.04
43.14
42.05
40.88
39.69
38.49
37.35
36.33
35.39
34.41
33.19
31.5
29.23
26.4
23.09
19.46
15.63
11.71
7.77
3.88
0.05
-3.73
-7.51
-11.36
-15.3
-19.31
-23.37
-27.5
-31.82
-36.56
-41.94
-47.9
-54.02
-59.4
-62.85
-63.22
-59.86
-52.82
-42.98
-31.68
-20.32
-9.93
-0.98
6.51
12.73
17.74
21.45
23.67
24.35
23.75
22.43
21.11
20.37
20.45
21.25
22.41
23.56
24.42
24.9
25.04
24.91
24.56
23.93
22.97
21.55
19.59
17.05
13.92
10.29
6.32
2.21
-1.82
-5.67
-9.33
-12.93
-16.62
-20.61
-25.04
-30.05
-35.66
-41.65
-47.45
-52.17
-54.71
-54.13
-49.96
-42.46
-32.54
-21.46
-10.44
-0.36
8.38
15.7
21.6
25.99
28.68
29.53
28.71
26.72
24.41
22.62
21.84
22.12
23.02
23.9
24.24
23.82
22.76
21.39
20.01
18.74
17.44
15.82
13.51
10.26
6.04
1.11
-4.1
-9.13
-13.61
-17.49
-20.92
-24.24
-27.83
-32.07
-37.31
-43.83
-51.65
-60.34
-68.87
-75.73
-79.32
-78.45
-72.85
-63.23
-51
-37.81
-25
-13.31
-2.93
6.3
14.64
22.21
28.94
34.64
39.06
42.01
43.48
43.7
43.07
42.09
41.24
40.81
40.87
41.29
41.84
42.21
42.13
41.38
39.9
37.74
35.02
31.93
28.53
24.85
20.75
16.19
11.19
5.94
0.73
-4.16
-8.57
-12.55
-16.37
-20.46
-25.36
-31.43
-38.76
-46.9
-54.89
-61.43
-65.21
-65.23
-61.15
-53.3
-42.64
-30.49
-18.16
-6.68
3.43
12.22
20.03
27.22
33.88
39.7
44.16
46.87
47.79
47.35
46.23
45.06
44.13
43.44
42.85
42.29
41.85
41.64
41.7
41.83
41.67
40.78
38.89
35.96
32.19
27.97
23.67
19.57
15.71
11.93
7.99
3.72
-0.87
-5.56
-10.03
-14.04
-17.55
-20.83
-24.34
-28.65
-34.25
-41.35
-49.67
-58.34
-65.95
-70.92
-71.9
-68.29
-60.49
-49.68
-37.45
-25.23
-13.91
-3.82
5.11
13.02
19.88
25.54
29.77
32.49
33.86
34.26
34.16
33.93
33.79
33.72
33.62
33.48
33.49
34
35.29
37.4
39.9
42
42.81
41.73
38.65
34.01
28.61
23.26
18.58
14.81
11.81
9.2
6.46
3.14
-1.07
-6.18
-11.96
-17.89
-23.46
-28.23
-32.16
-35.54
-38.99
-43.18
-48.6
-55.29
-62.72
-69.84
-75.38
-78.15
-77.36
-72.84
-65.01
-54.71
-42.93
-30.64
-18.61
-7.34
2.93
12.15
20.36
27.56
33.67
38.57
42.16
44.48
45.77
46.37
46.56
46.54
46.37
46.08
45.72
45.42
45.19
44.82
43.93
42
38.76
34.25
28.96
23.55
18.61
14.35
10.57
6.76
2.39
-2.8
-8.74
-15.01
-21.13
-26.73
-31.71
-36.25
-40.74
-45.66
-51.39
-57.99
-65.09
-71.79
-76.78
-78.66
-76.39
-69.7
-59.26
-46.46
-32.96
-20.11
-8.61
1.49
10.54
18.85
26.45
33.08
38.33
41.98
44.12
45.11
45.41
45.43
45.37
45.25
45.05
44.84
44.72
44.81
45.11
45.44
45.42
44.62
42.67
39.51
35.32
30.57
25.75
21.17
16.86
12.55
7.92
2.77
-2.82
-8.49
-13.83
-18.55
-22.65
-26.42
-30.34
-34.95
-40.65
-47.6
-55.59
-63.81
-70.99
-75.65
-76.49
-72.91
-65.22
-54.54
-42.39
-30.17
-18.76
-8.42
0.95
9.53
17.28
23.94
29.14
32.67
34.65
35.55
36.01
36.58
37.49
38.65
39.76
40.59
41.11
41.55
42.05
42.56
42.67
41.86
39.75
36.37
32.17
27.78
23.71
20.1
16.72
13.19
9.21
4.72
-0.11
-4.97
-9.62
-13.91
-17.79
-21.31
-24.56
-27.7
-31.06
-35.07
-40.18
-46.7
-54.39
-62.4
-69.24
-73.2
-72.91
-67.87
-58.68
-46.83
-34.11
-21.96
-11.15
-1.78
6.35
13.34
18.96
22.81
24.77
25.21
24.95
24.96
25.82
27.51
29.46
30.95
31.55
31.26
30.49
29.66
28.98
28.26
27.11
25.22
22.59
19.62
16.82
14.6
12.99
11.63
9.97
7.57
4.32
0.45
-3.71
-7.88
-12
-16.1
-20.15
-23.99
-27.38
-30.28
-32.96
-35.96
-39.67
-43.98
-48.09
-50.65
-50.3
-46.21
-38.43
-27.86
-15.91
-4.04
6.72
15.82
23.14
28.73
32.63
34.72
34.89
33.17
29.96
26.03
22.29
19.53
18.12
17.95
18.61
19.6
20.54
21.22
21.52
21.31
20.44
18.79
16.48
13.78
11.04
8.51
6.15
3.72
0.91
-2.39
-6.1
-9.99
-13.95
-17.95
-22.14
-26.6
-31.3
-36.11
-41.03
-46.24
-52.04
-58.49
-64.99
-70.27
-72.68
-70.87
-64.47
-54.23
-41.72
-28.7
-16.47
-5.64
3.73
11.85
18.89
24.84
29.63
33.24
35.69
37.09
37.59
37.36
36.61
35.65
34.8
34.38
34.56
35.35
36.53
37.76
38.55
38.48
37.22
34.68
30.98
26.45
21.43
16.27
11.22
6.38
1.8
-2.61
-6.96
-11.37
-15.9
-20.51
-25.07
-29.57
-34.16
-39.2
-45.12
-52.02
-59.38
-65.98
-70.17
-70.42
-65.98
-57.22
-45.45
-32.47
-19.89
-8.67
0.81
8.62
14.86
19.58
22.78
24.68
25.69
26.35
27.09
28.03
29.04
29.86
30.34
30.5
30.52
30.53
30.54
30.41
29.97
29.19
28.1
26.77
25.19
23.24
20.69
17.39
13.36
8.74
3.83
-1.08
-5.76
-10.07
-14.02
-17.74
-21.44
-25.38
-29.82
-34.93
-40.72
-46.95
-53.08
-58.23
-61.35
-61.45
-57.9
-50.69
-40.52
-28.58
-16.24
-4.72
5.23
13.4
19.96
25.24
29.48
32.68
34.64
35.18
34.33
32.46
30.17
28.14
26.85
26.43
26.71
27.38
28.19
28.96
29.61
29.96
29.76
28.77
26.88
24.26
21.31
18.46
15.84
13.26
10.25
6.37
1.53
-3.95
-9.52
-14.69
-19.31
-23.64
-28.11
-33.1
-38.79
-45.13
-51.86
-58.53
-64.42
-68.54
-69.77
-67.19
-60.49
-50.29
-37.99
-25.31
-13.78
-4.24
3.18
8.87
13.32
16.87
19.57
21.36
22.28
22.58
22.78
23.42
24.86
27.12
29.89
32.67
35.02
36.79
38.08
39.18
40.29
41.37
42.06
41.82
40.15
36.76
31.78
25.71
19.31
13.3
8.22
4.18
0.89
-2.21
-5.73
-10.11
-15.59
-22.2
-29.83
-38.24
-46.89
-54.85
-60.81
-63.42
-61.69
-55.43
-45.4
-33.06
-20.05
-7.73
3.12
12.32
19.96
26.19
30.98
34.13
35.44
34.97
33.16
30.83
28.89
28.01
28.37
29.57
30.93
31.87
32.15
31.96
31.59
31.19
30.54
29.24
26.99
23.78
19.98
16.06
12.35
8.91
5.56
2.12
-1.45
-5.01
-8.37
-11.44
-14.36
-17.47
-21.22
-25.92
-31.59
-37.87
-43.92
-48.6
-50.75
-49.58
-44.92
-37.34
-27.88
-17.74
-7.92
0.92
8.36
14.13
17.97
19.7
19.3
17.06
13.62
9.78
6.35
3.91
2.71
2.68
3.5
4.79
6.23
7.65
9
10.22
11.15
11.48
10.89
9.19
6.47
3.11
-0.37
-3.52
-6.1
-8.15
-9.92
-11.82
-14.27
-17.62
-22.02
-27.28
-32.81
-37.67
-40.78
-41.26
-38.68
-33.16
-25.33
-16.14
-6.57
2.45
10.22
16.26
20.31
22.29
22.26
20.48
17.34
13.44
9.48
6.11
3.87
2.92
3.1
4.01
5.14
6.07
6.52
6.36
5.57
4.15
2.12
-0.46
-3.53
-6.92
-10.45
-13.94
-17.32
-20.71
-24.46
-29.04
-34.79
-41.65
-48.96
-55.46
-59.67
-60.32
-56.83
-49.49
-39.36
-27.82
-16.19
-5.41
4.09
12.19
18.88
24.08
27.64
29.48
29.66
28.49
26.53
24.37
22.48
21.09
20.17
19.54
19.04
18.58
18.14
17.63
16.83
15.39
12.98
9.48
5.05
0.14
-4.73
-9.16
-13.12
-16.99
-21.41
-27.04
-34.24
-42.84
-52.04
-60.46
-66.55
-68.91
-66.85
-60.54
-50.95
-39.5
-27.62
-16.35
-6.16
2.93
11.09
18.46
24.93
30.29
34.27
36.76
37.92
38.09
37.67
37.02
36.31
35.58
34.77
33.88
32.96
32.16
31.59
31.24
30.88
30.1
28.41
25.47
21.18
15.8
9.84
3.87
-1.71
-6.76
-11.47
-16.27
-21.68
-28.19
-36.05
-45.11
-54.71
-63.65
-70.45
-73.75
-72.76
-67.51
-58.88
-48.17
-36.67
-25.28
-14.36
-3.91
6.12
15.68
24.51
32.3
38.84
44.11
48.24
51.46
53.94
55.8
57.11
57.93
58.33
58.44
58.35
58.15
57.86
57.49
57
56.3
55.18
53.42
50.79
47.2
42.8
37.9
32.88
27.97
23.19
18.25
12.79
6.56
-0.37
-7.55
-14.33
-20.17
-24.95
-29.04
-33.16
-38.14
-44.59
-52.67
-62.04
-71.9
-81.07
-88.19
-92
-91.59
-86.73
-77.86
-66.08
-52.74
-39.13
-26.06
-13.85
-2.39
8.6
19.24
29.36
38.46
45.95
51.31
54.44
55.72
55.85
55.64
55.64
56.02
56.6
57.11
57.32
57.16
56.6
55.52
53.66
50.71
46.53
41.26
35.34
29.36
23.79
18.91
14.69
10.93
7.32
3.57
-0.56
-5.26
-10.55
-16.29
-22.13
-27.64
-32.52
-36.7
-40.47
-44.45
-49.3
-55.53
-63.24
-71.9
-80.44
-87.4
-91.32
-91.09
-86.33
-77.51
-65.77
-52.63
-39.51
-27.36
-16.55
-6.99
1.61
9.52
16.85
23.59
29.66
35
39.64
43.62
46.97
49.67
51.66
52.96
53.63
53.82
53.75
53.58
53.4
53.18
52.78
51.98
50.49
48.03
44.41
39.64
33.99
27.98
22.22
17.19
13.03
9.5
6.19
2.66
-1.27
-5.5
-9.72
-13.62
-17.05
-20.16
-23.31
-27.05
-31.86
-38.09
-45.71
-54.28
-62.86
-70.19
-74.98
-76.22
-73.49
-67.04
-57.71
-46.56
-34.63
-22.63
-10.95
0.28
11
21.05
30.17
38.03
44.42
49.26
52.68
54.94
56.36
57.22
57.76
58.14
58.42
58.59
58.6
58.36
57.75
56.61
54.76
52.07
48.5
44.21
39.53
34.89
30.64
26.9
23.48
19.98
16.02
11.36
6.04
0.36
-5.29
-10.51
-15.06
-18.8
-21.78
-24.19
-26.4
-28.92
-32.36
-37.27
-43.84
-51.74
-59.95
-67.01
-71.36
-71.83
-68.02
-60.4
-50.07
-38.35
-26.41
-15.02
-4.57
4.8
13.02
20
25.56
29.61
32.15
33.38
33.61
33.18
32.38
31.43
30.51
29.83
29.61
29.96
30.8
31.87
32.76
33.11
32.7
31.44
29.36
26.44
22.69
18.32
13.73
9.44
5.76
2.55
-0.94
-5.68
-12.36
-20.94
-30.47
-39.46
-46.48
-50.84
-52.86
-53.8
-55.35
-58.96
-65.34
-74.14
-84.06
-93.14
-99.22
-100.45
-95.75
-85.12
-69.58
-51.01
-31.58
-13.27
2.56
15.35
25.25
32.76
38.45
42.8
46.11
48.7
50.92
53.2
55.91
59.28
63.18
67.07
70.15
71.71
71.56
70.31
69.1
68.98
70.17
71.8
72.15
69.58
63.47
54.58
44.75
35.87
29.04
24.09
19.99
15.65
10.53
4.84
-0.8
-5.83
-10.14
-14.03
-18.09
-22.89
-28.69
-35.41
-42.56
-49.31
-54.63
-57.52
-57.31
-53.89
-47.68
-39.52
-30.34
-20.96
-11.96
-3.77
3.2
8.55
11.95
13.37
13.12
11.81
10.18
8.77
7.8
7.2
6.76
6.31
5.91
5.72
5.99
6.84
8.18
9.77
11.21
12.1
12.18
11.3
9.55
7.14
4.35
1.47
-1.3
-3.87
-6.3
-8.67
-11.11
-13.6
-16.12
-18.59
-20.99
-23.39
-26.02
-29.08
-32.77
-37.06
-41.58
-45.64
-48.35
-48.87
-46.63
-41.6
-34.16
-25.12
-15.33
-5.62
3.29
10.81
16.43
19.8
20.8
19.67
16.95
13.38
9.67
6.41
3.92
2.38
1.77
1.9
2.54
3.39
4.18
4.76
5.04
4.94
4.33
3.02
0.89
-2.01
-5.38
-8.75
-11.64
-13.74
-15.1
-16.04
-17.1
-18.86
-21.73
-25.85
-30.98
-36.51
-41.49
-44.89
-45.86
-43.87
-38.94
-31.57
-22.59
-12.98
-3.73
4.42
10.94
15.58
18.31
19.27
18.68
16.8
13.98
10.6
7.12
4.01
1.66
0.29
-0.05
0.52
1.69
3.05
4.07
4.25
3.21
0.91
-2.33
-5.95
-9.36
-12.21
-14.49
-16.49
-18.66
-21.41
-25
-29.49
-34.62
-39.81
-44.16
-46.62
-46.2
-42.41
-35.39
-25.98
-15.42
-5.08
4.02
11.3
16.64
20.23
22.32
23.1
22.65
21.06
18.52
15.44
12.36
9.87
8.37
7.96
8.44
9.38
10.31
10.77
10.46
9.19
7.01
4.09
0.77
-2.64
-5.86
-8.87
-11.83
-15.12
-19.18
-24.31
-30.6
-37.7
-44.82
-50.77
-54.23
-54.16
-50.14
-42.61
-32.67
-21.76
-11.18
-1.78
6.07
12.4
17.39
21.18
23.79
25.21
25.4
24.5
22.78
20.69
18.73
17.28
16.55
16.44
16.64
16.76
16.53
15.79
14.53
12.75
10.43
7.58
4.24
0.59
-3.15
-6.81
-10.41
-14.21
-18.65
-24.15
-30.89
-38.6
-46.43
-53.05
-57.05
-57.29
-53.35
-45.67
-35.41
-24.07
-13.03
-3.11
5.46
12.92
19.68
26.02
31.87
36.88
40.59
42.66
43.08
42.24
40.72
39.08
37.59
36.22
34.77
33.08
31.25
29.47
27.94
26.61
25.1
22.94
19.76
15.51
10.53
5.36
0.56
-3.52
-6.86
-9.67
-12.46
-15.86
-20.59
-27.19
-35.82
-45.94
-56.27
-65
-70.3
-70.88
-66.44
-57.7
-46.12
-33.4
-20.98
-9.78
-0.09
8.26
15.67
22.54
29.02
35.04
40.27
44.32
46.88
47.93
47.71
46.6
44.99
43.17
41.32
39.57
38.06
36.86
35.91
35.01
33.85
32.17
29.94
27.39
24.87
22.73
20.99
19.37
17.31
14.3
10.09
4.81
-1.08
-7.05
-12.7
-17.89
-22.85
-27.96
-33.69
-40.39
-48.11
-56.49
-64.59
-71.08
-74.48
-73.68
-68.28
-58.87
-46.78
-33.65
-20.91
-9.36
0.83
9.88
18.02
25.27
31.41
36.13
39.28
41.01
41.72
41.92
42.02
42.17
42.3
42.22
41.76
40.95
39.94
38.92
38.01
37.12
36.07
34.61
32.59
30.12
27.42
24.85
22.6
20.67
18.75
16.39
13.2
8.98
3.87
-1.69
-7.14
-12.01
-16.1
-19.57
-22.91
-26.72
-31.58
-37.77
-45.23
-53.39
-61.22
-67.42
-70.67
-70
-65.12
-56.53
-45.42
-33.26
-21.34
-10.4
-0.58
8.41
16.89
24.91
32.16
38.11
42.31
44.58
45.13
44.44
43.09
41.54
40.07
38.75
37.6
36.62
35.91
35.61
35.8
36.38
37.02
37.21
36.49
34.63
31.73
28.25
24.75
21.67
19.1
16.85
14.49
11.64
8.1
3.89
-0.75
-5.49
-10.01
-14.05
-17.53
-20.5
-23.18
-25.89
-29.01
-32.83
-37.51
-42.93
-48.71
-54.13
-58.27
-60.17
-59.02
-54.44
-46.65
-36.4
-24.85
-13.2
-2.39
7.02
14.86
21.13
25.88
29.13
30.92
31.46
31.11
30.4
29.81
29.65
29.9
30.38
30.79
30.98
30.94
30.81
30.74
30.67
30.33
29.38
27.55
24.86
21.58
18.14
14.81
11.62
8.35
4.73
0.74
-3.4
-7.27
-10.54
-13.14
-15.33
-17.62
-20.51
-24.35
-29.24
-34.91
-40.8
-46.02
-49.57
-50.49
-48.22
-42.71
-34.53
-24.66
-14.21
-4.11
5.02
12.86
19.31
24.3
27.76
29.59
29.81
28.67
26.69
24.57
22.93
22.13
22.12
22.54
22.9
22.92
22.57
22.02
21.5
21.03
20.42
19.32
17.4
14.47
10.58
6
1.13
-3.61
-7.88
-11.54
-14.67
-17.57
-20.63
-24.24
-28.72
-34.25
-40.69
-47.57
-54.02
-58.92
-61.14
-59.9
-55.06
-47.2
-37.36
-26.78
-16.42
-6.85
1.69
9.12
15.3
19.96
22.86
23.91
23.36
21.74
19.76
18.05
17.07
16.97
17.7
19.03
20.66
22.24
23.45
23.94
23.48
21.96
19.49
16.33
12.85
9.31
5.82
2.32
-1.37
-5.35
-9.61
-14.05
-18.67
-23.61
-29.18
-35.56
-42.52
-49.17
-54.12
-55.9
-53.55
-47.03
-37.24
-25.65
-13.81
-2.84
6.71
14.75
21.42
26.89
31.16
34.21
35.99
36.55
36.07
34.86
33.3
31.7
30.3
29.14
28.16
27.26
26.39
25.62
25.02
24.59
24.13
23.27
21.62
18.92
15.16
10.58
5.53
0.39
-4.54
-9.09
-13.24
-17.13
-21.07
-25.47
-30.79
-37.29
-44.89
-53.01
-60.55
-66.13
-68.44
-66.63
-60.7
-51.52
-40.53
-29.29
-18.93
-9.86
-1.95
5.13
11.53
17.07
21.31
23.87
24.65
23.88
22.02
19.63
17.19
15.12
13.7
13.1
13.31
14.16
15.32
16.48
17.36
17.73
17.47
16.49
14.78
12.42
9.58
6.51
3.39
0.31
-2.76
-5.98
-9.52
-13.54
-18.16
-23.39
-29.2
-35.36
-41.45
-46.81
-50.6
-51.97
-50.31
-45.39
-37.51
-27.47
-16.31
-5.16
5.07
13.81
20.85
26.23
30.08
32.48
33.46
33.1
31.58
29.3
26.82
24.67
23.19
22.47
22.32
22.46
22.66
22.77
22.69
22.26
21.28
19.56
17.09
14.05
10.75
7.45
4.2
0.85
-2.76
-6.68
-10.73
-14.59
-18.04
-21.1
-23.93
-26.87
-30.22
-34.22
-39.07
-44.84
-51.33
-57.86
-63.28
-66.13
-65.23
-60.07
-51.06
-39.46
-26.84
-14.66
-3.83
5.34
12.96
19.35
24.73
29.19
32.58
34.69
35.38
34.77
33.31
31.62
30.33
29.82
30.11
30.86
31.6
31.94
31.66
30.7
29.11
26.91
24.15
20.88
17.24
13.42
9.59
5.84
2.14
-1.58
-5.37
-9.18
-12.82
-16.11
-18.92
-21.27
-23.46
-26.02
-29.57
-34.58
-41.07
-48.4
-55.25
-59.96
-61
-57.58
-49.88
-39.02
-26.63
-14.28
-3.08
6.5
14.53
21.26
26.93
31.64
35.33
37.98
39.63
40.4
40.5
40.12
39.44
38.61
37.76
37.02
36.47
36.08
35.67
34.97
33.74
31.84
29.34
26.5
23.63
21.01
18.81
17.03
15.48
13.89
11.87
9.05
5.16
0.27
-5.21
-10.6
-15.16
-18.43
-20.49
-21.95
-23.77
-26.86
-31.73
-38.2
-45.5
-52.35
-57.36
-59.3
-57.41
-51.53
-42.21
-30.62
-18.25
-6.47
3.76
12.2
19.12
25.02
30.2
34.57
37.73
39.26
39.06
37.51
35.31
33.22
31.7
30.83
30.44
30.28
30.29
30.61
31.41
32.71
34.2
35.26
35.21
33.59
30.44
26.26
21.72
17.29
13.09
8.81
4
-1.55
-7.75
-14.16
-20.3
-25.82
-30.61
-34.77
-38.41
-41.68
-44.77
-47.96
-51.52
-55.47
-59.3
-61.96
-62.13
-58.68
-51.21
-40.27
-27.22
-13.68
-1.01
10.03
19.25
26.77
32.68
36.91
39.33
39.93
39.08
37.47
35.89
34.98
34.98
35.69
36.64
37.34
37.42
36.79
35.53
33.85
31.89
29.71
27.25
24.42
21.12
17.35
13.18
8.71
4.05
-0.72
-5.58
-10.48
-15.29
-19.82
-23.82
-27.17
-29.92
-32.41
-35.2
-38.8
-43.43
-48.82
-54.1
-58.02
-59.25
-56.89
-50.73
-41.39
-30.13
-18.37
-7.28
2.48
10.78
17.72
23.37
27.55
30.01
30.62
29.64
27.73
25.75
24.39
23.9
24.09
24.48
24.59
24.16
23.22
22.08
21.14
20.69
20.71
20.83
20.4
18.79
15.71
11.38
6.49
1.9
-1.78
-4.48
-6.54
-8.57
-11.03
-14.19
-18.03
-22.45
-27.27
-32.18
-36.66
-39.95
-41.26
-40.02
-36.08
-29.78
-21.79
-12.95
-4.09
4
10.63
15.3
17.73
17.98
16.43
13.7
10.44
7.22
4.46
2.41
1.24
0.99
1.61
2.88
4.44
5.83
6.61
6.41
5.1
2.71
-0.58
-4.44
-8.49
-12.38
-15.93
-19.15
-22.36
-26.08
-30.78
-36.69
-43.5
-50.34
-55.91
-58.86
-58.21
-53.67
-45.7
-35.35
-23.89
-12.5
-2.02
7.11
14.73
20.75
25.12
27.77
28.68
28
26.11
23.51
20.76
18.26
16.23
14.66
13.48
12.58
11.92
11.47
11.14
10.73
9.97
8.54
6.24
3.04
-0.89
-5.22
-9.58
-13.74
-17.67
-21.64
-26.14
-31.67
-38.51
-46.38
-54.33
-60.94
-64.63
-64.22
-59.32
-50.41
-38.76
-25.94
-13.37
-1.96
7.98
16.55
24.05
30.55
35.95
39.93
42.23
42.79
41.9
40.1
37.99
36.06
34.53
33.37
32.35
31.23
29.9
28.42
26.97
25.7
24.56
23.2
21.08
17.73
13.02
7.26
1.17
-4.48
-9.19
-12.98
-16.33
-19.96
-24.56
-30.43
-37.54
-45.34
-52.95
-59.2
-62.86
-62.92
-58.92
-51.19
-40.77
-29.13
-17.64
-7.22
1.79
9.56
16.34
22.31
27.37
31.22
33.58
34.36
33.71
32.01
29.76
27.49
25.59
24.27
23.58
23.35
23.39
23.48
23.51
23.41
23.14
22.62
21.74
20.35
18.39
15.86
12.87
9.54
5.98
2.24
-1.64
-5.63
-9.62
-13.55
-17.31
-20.96
-24.59
-28.44
-32.71
-37.4
-42.22
-46.43
-49.07
-49.18
-46.11
-39.86
-31.01
-20.58
-9.67
0.85
10.37
18.53
24.95
29.31
31.3
30.92
28.6
25.14
21.57
18.79
17.35
17.33
18.35
19.81
21.16
22.03
22.42
22.51
22.51
22.48
22.23
21.43
19.74
17.03
13.43
9.27
4.87
0.47
-3.79
-7.85
-11.62
-15.06
-18.23
-21.39
-24.92
-29.21
-34.33
-39.95
-45.31
-49.37
-51.12
-49.86
-45.35
-37.89
-28.24
-17.49
-6.74
3.1
11.5
18.33
23.75
27.9
30.82
32.39
32.53
31.39
29.41
27.26
25.55
24.64
24.5
24.8
25.11
25.05
24.42
23.26
21.68
19.88
17.92
15.79
13.31
10.28
6.62
2.41
-2.04
-6.38
-10.31
-13.8
-17
-20.21
-23.75
-27.86
-32.73
-38.44
-44.84
-51.46
-57.36
-61.34
-62.2
-59.2
-52.35
-42.46
-30.82
-18.79
-7.45
2.63
11.33
18.77
25.11
30.48
34.89
38.28
40.58
41.76
41.88
41.15
39.91
38.51
37.27
36.32
35.68
35.26
34.92
34.54
33.99
33.13
31.81
29.91
27.41
24.37
20.92
17.21
13.31
9.23
4.94
0.45
-4.17
-8.77
-13.14
-17.13
-20.75
-24.25
-28.13
-32.98
-39.16
-46.48
-54.06
-60.42
-63.94
-63.42
-58.47
-49.66
-38.3
-25.91
-13.81
-2.85
6.71
14.91
22.02
28.23
33.6
37.99
41.21
43.07
43.6
43.04
41.8
40.31
38.88
37.6
36.44
35.35
34.37
33.61
33.18
32.99
32.76
32.05
30.44
27.73
24.03
19.76
15.5
11.74
8.69
6.22
3.86
1.02
-2.7
-7.34
-12.54
-17.7
-22.23
-25.88
-28.8
-31.49
-34.56
-38.57
-43.84
-50.44
-58.07
-65.95
-72.89
-77.38
-78.06
-74.19
-65.95
-54.43
-41.19
-27.77
-15.22
-3.99
5.91
14.59
22.11
28.38
33.29
36.83
39.09
40.33
40.86
40.99
41.02
41.17
41.53
42.02
42.47
42.65
42.42
41.73
40.61
39.16
37.41
35.34
32.86
29.93
26.58
22.91
19.12
15.42
11.95
8.75
5.73
2.7
-0.5
-4.01
-7.8
-11.72
-15.57
-19.18
-22.44
-25.34
-27.96
-30.43
-32.97
-35.9
-39.59
-44.35
-50.18
-56.66
-62.82
-67.46
-69.37
-67.77
-62.55
-54.24
-43.83
-32.47
-21.14
-10.54
-1.04
7.19
14.05
19.47
23.39
25.82
26.96
27.09
26.57
25.71
24.76
23.89
23.23
22.93
23.12
23.85
24.94
26.1
27.01
27.36
27
25.98
24.41
22.44
20.2
17.79
15.27
12.63
9.84
6.85
3.65
0.34
-2.92
-5.87
-8.32
-10.29
-12.05
-14.13
-17.2
-21.78
-27.96
-35.17
-42.23
-47.63
-49.97
-48.41
-42.96
-34.4
-24.01
-13.12
-2.76
6.45
14.22
20.48
25.23
28.48
30.3
30.85
30.41
29.32
27.92
26.48
25.22
24.28
23.74
23.65
23.99
24.62
25.26
25.51
25
23.46
20.87
17.44
13.57
9.69
6.07
2.79
-0.27
-3.35
-6.67
-10.35
-14.37
-18.57
-22.73
-26.64
-30.18
-33.38
-36.49
-39.95
-44.26
-49.76
-56.32
-63.21
-69.09
-72.4
-71.8
-66.64
-57.27
-44.88
-31.14
-17.7
-5.73
4.24
12.21
18.54
23.64
27.79
31.16
33.81
35.79
37.18
38.1
38.65
38.79
38.47
37.61
36.32
34.88
33.65
33
33.06
33.61
34.13
34.01
32.75
30.27
26.82
22.93
19.1
15.55
12.21
8.79
5.02
0.75
-3.9
-8.69
-13.33
-17.63
-21.54
-25.21
-28.91
-33.02
-37.91
-43.83
-50.73
-58.1
-64.99
-70.14
-72.35
-70.77
-65.17
-56.05
-44.42
-31.55
-18.68
-6.75
3.61
12.13
18.71
23.46
26.55
28.25
28.82
28.58
27.84
26.87
25.89
25.07
24.43
23.93
23.56
23.29
23.17
23.24
23.43
23.57
23.36
22.57
21.04
18.84
16.19
13.38
10.67
8.17
5.87
3.59
1.1
-1.79
-5.1
-8.65
-12.13
-15.18
-17.62
-19.59
-21.5
-23.92
-27.24
-31.56
-36.42
-40.97
-44.13
-44.92
-42.69
-37.33
-29.29
-19.44
-8.86
1.4
10.57
18.18
24.03
28.02
30.12
30.34
28.86
26.11
22.79
19.7
17.51
16.52
16.62
17.43
18.43
19.21
19.57
19.45
18.95
18.13
17.04
15.63
13.8
11.44
8.47
4.97
1.13
-2.82
-6.66
-10.31
-13.8
-17.18
-20.51
-23.83
-27.31
-31.2
-35.82
-41.28
-47.26
-52.85
-56.79
-57.82
-55.21
-48.98
-39.85
-28.97
-17.56
-6.59
3.32
11.83
18.82
24.28
28.21
30.63
31.62
31.32
30.01
28.13
26.19
24.66
23.76
23.48
23.62
23.9
24.09
24.07
23.82
23.3
22.47
21.25
19.55
17.33
14.53
11.13
7.18
2.77
-1.9
-6.62
-11.23
-15.61
-19.78
-23.78
-27.77
-31.95
-36.61
-42.01
-48.26
-55.04
-61.52
-66.39
-68.24
-66.01
-59.4
-49.05
-36.32
-22.84
-10.03
1.19
10.56
18.23
24.51
29.61
33.59
36.4
38.01
38.58
38.38
37.71
36.75
35.55
34.11
32.48
30.84
29.46
28.57
28.19
28.1
27.91
27.23
25.81
23.63
20.82
17.58
14.1
10.49
6.81
3.06
-0.79
-4.75
-8.73
-12.61
-16.22
-19.48
-22.54
-25.71
-29.53
-34.51
-40.88
-48.38
-56.13
-62.82
-66.96
-67.36
-63.52
-55.77
-45.16
-33.05
-20.73
-9.13
1.26
10.3
18
24.45
29.7
33.83
36.84
38.76
39.59
39.4
38.34
36.76
35.07
33.61
32.55
31.82
31.21
30.52
29.64
28.58
27.38
26.01
24.33
22.21
19.5
16.2
12.4
8.27
3.96
-0.4
-4.65
-8.66
-12.3
-15.53
-18.49
-21.54
-25.13
-29.59
-34.99
-40.94
-46.63
-51.04
-53.11
-52.13
-47.88
-40.7
-31.35
-20.86
-10.19
-0.16
8.72
16.19
22.11
26.38
28.91
29.68
28.83
26.75
24.07
21.52
19.69
18.88
19.02
19.75
20.6
21.22
21.45
21.34
21.01
20.5
19.67
18.2
15.76
12.21
7.73
2.88
-1.71
-5.53
-8.53
-11.06
-13.76
-17.23
-21.76
-27.3
-33.47
-39.63
-45.04
-48.89
-50.41
-49
-44.47
-37.05
-27.48
-16.77
-5.97
4.07
12.85
20.15
25.93
30.19
32.92
34.1
33.75
32.14
29.75
27.19
25.08
23.74
23.12
22.85
22.52
21.86
20.94
20.02
19.3
18.72
17.94
16.52
14.18
10.95
7.2
3.34
-0.32
-3.73
-7.01
-10.34
-13.85
-17.64
-21.87
-26.78
-32.68
-39.73
-47.63
-55.46
-61.76
-64.96
-63.91
-58.38
-49.14
-37.67
-25.61
-14.24
-4.19
4.53
12.18
19.08
25.32
30.83
35.39
38.84
40.99
41.78
41.26
39.59
37.19
34.62
32.5
31.35
31.37
32.37
33.75
34.69
34.42
32.53
29.08
24.6
19.76
15
10.4
5.75
0.85
-4.25
-9.18
-13.5
-16.94
-19.71
-22.35
-25.54
-29.85
-35.54
-42.52
-50.36
-58.36
-65.43
-70.26
-71.54
-68.37
-60.68
-49.28
-35.71
-21.72
-8.75
2.36
11.43
18.67
24.39
28.79
31.86
33.53
33.82
32.95
31.39
29.72
28.49
28.04
28.45
29.55
31.07
32.76
34.44
35.98
37.22
37.87
37.6
36.11
33.41
29.81
25.91
22.38
19.62
17.6
15.81
13.53
10.18
5.55
-0.03
-5.87
-11.25
-15.76
-19.45
-22.8
-26.53
-31.24
-37.22
-44.21
-51.44
-57.78
-61.95
-62.9
-59.99
-53.26
-43.41
-31.61
-19.26
-7.55
2.76
11.42
18.52
24.36
29.09
32.76
35.39
37.04
37.93
38.34
38.49
38.37
37.71
36.13
33.39
29.67
25.63
22.29
20.61
21.07
23.4
26.54
29.06
29.62
27.53
23.01
17.03
10.86
5.51
1.33
-1.96
-5.04
-8.55
-12.75
-17.45
-22.21
-26.53
-30.1
-32.92
-35.22
-37.41
-40.01
-43.54
-48.31
-54.27
-60.83
-66.91
-71.15
-72.3
-69.67
-63.23
-53.6
-41.75
-28.75
-15.52
-2.87
8.57
18.37
26.27
32.26
36.51
39.28
40.79
41.29
41.08
40.59
40.29
40.54
41.35
42.38
43.11
43.11
42.33
41.09
39.83
38.87
38.17
37.32
35.83
33.32
29.81
25.59
21.15
16.86
12.81
8.89
4.83
0.47
-4.15
-8.76
-13.01
-16.71
-19.89
-22.79
-25.75
-29.03
-32.81
-37.18
-42.18
-47.76
-53.61
-59.01
-62.83
-63.86
-61.18
-54.57
-44.61
-32.56
-19.9
-7.91
2.64
11.53
18.88
24.87
29.54
32.7
34.11
33.73
31.86
29.17
26.5
24.57
23.66
23.62
23.99
24.32
24.34
24.03
23.5
22.79
21.79
20.33
18.3
15.79
13
10.23
7.64
5.25
2.96
0.65
-1.74
-4.17
-6.61
-9.05
-11.56
-14.23
-17.24
-20.74
-24.87
-29.6
-34.6
-39.2
-42.4
-43.19
-40.92
-35.5
-27.5
-17.92
-7.82
1.87
10.53
17.7
23.11
26.56
28
27.64
25.92
23.38
20.59
17.96
15.8
14.2
13.13
12.41
11.79
11.05
10.21
9.49
9.31
9.9
11.16
12.51
13.15
12.47
10.28
6.96
3.12
-0.7
-4.33
-7.87
-11.52
-15.3
-19.01
-22.42
-25.55
-28.84
-33
-38.65
-45.8
-53.64
-60.65
-65.02
-65.32
-60.98
-52.49
-41.11
-28.45
-15.93
-4.48
5.49
13.93
20.9
26.43
30.49
33.1
34.36
34.5
33.85
32.79
31.69
30.79
30.17
29.7
29.16
28.27
26.97
25.37
23.75
22.31
21.05
19.64
17.62
14.57
10.4
5.39
0.13
-4.78
-8.9
-12.13
-14.66
-16.83
-19.06
-21.7
-25.06
-29.37
-34.69
-40.83
-47.22
-52.87
-56.6
-57.31
-54.37
-47.85
-38.51
-27.51
-16.09
-5.26
4.36
12.5
19.12
24.3
28.15
30.83
32.48
33.27
33.31
32.72
31.68
30.44
29.33
28.64
28.52
28.85
29.29
29.41
28.87
27.56
25.6
23.27
20.87
18.58
16.33
13.96
11.21
7.85
3.78
-0.99
-6.18
-11.44
-16.32
-20.5
-23.85
-26.57
-29.1
-32.04
-35.9
-40.91
-46.8
-52.77
-57.6
-59.91
-58.65
-53.4
-44.57
-33.32
-21.2
-9.71
0.1
7.85
13.72
18.2
21.7
24.37
26.05
26.48
25.56
23.6
21.24
19.27
18.22
18.23
19
20.05
21.01
21.67
22.05
22.14
21.89
21.17
19.91
18.1
15.86
13.31
10.49
7.43
4.21
1.01
-1.95
-4.51
-6.72
-8.85
-11.27
-14.27
-17.98
-22.29
-26.93
-31.47
-35.36
-37.96
-38.63
-36.89
-32.61
-26.02
-17.74
-8.6
0.54
8.9
15.88
21.04
24.19
25.29
24.55
22.37
19.29
15.91
12.84
10.49
9.1
8.65
8.9
9.56
10.35
11.12
11.81
12.37
12.7
12.58
11.75
10.05
7.52
4.4
1
-2.35
-5.51
-8.53
-11.55
-14.77
-18.39
-22.57
-27.37
-32.7
-38.28
-43.6
-47.89
-50.39
-50.35
-47.42
-41.64
-33.51
-23.84
-13.58
-3.61
5.46
13.3
19.76
24.77
28.21
29.94
29.87
28.1
25.09
21.57
18.4
16.25
15.41
15.7
16.61
17.51
17.93
17.67
16.82
15.57
14.06
12.27
10.03
7.19
3.7
-0.3
-4.55
-8.73
-12.62
-16.16
-19.4
-22.49
-25.65
-29.14
-33.24
-38.2
-44.03
-50.37
-56.43
-61.07
-63.12
-61.77
-56.77
-48.55
-38.04
-26.42
-14.78
-3.93
5.7
13.94
20.79
26.38
30.79
34.06
36.21
37.23
37.18
36.2
34.55
32.55
30.52
28.73
27.4
26.67
26.58
27.02
27.75
28.39
28.53
27.92
26.49
24.33
21.58
18.31
14.46
9.91
4.7
-0.9
-6.49
-11.64
-16.22
-20.43
-24.76
-29.74
-35.74
-42.81
-50.63
-58.57
-65.79
-71.27
-74.02
-73.27
-68.7
-60.59
-49.82
-37.61
-25.26
-13.75
-3.64
4.93
12.08
18.03
22.95
26.96
30.13
32.56
34.36
35.71
36.76
37.64
38.38
39.02
39.51
39.89
40.22
40.57
40.89
41.02
40.69
39.61
37.71
35.12
32.27
29.69
27.76
26.53
25.59
24.19
21.52
17.08
10.91
3.68
-3.52
-9.64
-14.04
-16.77
-18.57
-20.6
-23.99
-29.51
-37.24
-46.57
-56.21
-64.44
-69.53
-70.14
-65.77
-56.95
-45.06
-31.9
-19.03
-7.35
2.99
12.34
21.02
29.03
35.99
41.32
44.67
46.03
45.79
44.52
42.72
40.73
38.82
37.17
36.01
35.5
35.77
36.73
38.17
39.74
40.99
41.47
40.71
38.35
34.3
28.93
22.94
17.2
12.38
8.63
5.61
2.62
-0.94
-5.32
-10.26
-15.24
-19.7
-23.35
-26.25
-28.76
-31.38
-34.62
-38.86
-44.29
-50.75
-57.69
-64.15
-68.95
-70.88
-69.08
-63.21
-53.51
-40.82
-26.33
-11.41
2.66
14.93
24.89
32.44
37.77
41.21
43.05
43.46
42.61
40.72
38.17
35.45
33.05
31.35
30.47
30.35
30.71
31.2
31.47
31.29
30.53
29.22
27.52
25.67
23.86
22.19
20.61
18.9
16.79
13.99
10.39
6.02
1.12
-4.05
-9.21
-14.15
-18.74
-22.83
-26.32
-29.24
-31.82
-34.5
-37.87
-42.36
-47.99
-54.19
-59.89
-63.78
-64.68
-61.93
-55.47
-45.94
-34.4
-22.1
-10.17
0.68
10.12
18.21
25.05
30.67
34.89
37.51
38.46
37.95
36.53
34.84
33.45
32.6
32.25
32.17
32.12
31.94
31.55
31
30.37
29.69
28.9
27.86
26.37
24.28
21.59
18.53
15.42
12.53
9.83
7.03
3.79
-0.1
-4.45
-8.76
-12.47
-15.25
-17.19
-18.7
-20.32
-22.53
-25.62
-29.77
-35.06
-41.38
-48.25
-54.68
-59.31
-60.75
-58.07
-51.16
-40.77
-28.29
-15.32
-3.3
6.91
14.94
20.99
25.46
28.78
31.18
32.72
33.35
33.04
31.98
30.46
28.8
27.22
25.81
24.53
23.47
22.77
22.68
23.27
24.3
25.22
25.35
24.18
21.64
18.18
14.53
11.34
8.85
6.78
4.49
1.33
-2.98
-8.13
-13.41
-18
-21.39
-23.57
-25.02
-26.43
-28.42
-31.38
-35.42
-40.44
-46.07
-51.59
-55.86
-57.53
-55.4
-48.92
-38.52
-25.55
-11.79
1.13
12.16
20.92
27.49
32.11
34.99
36.31
36.28
35.22
33.46
31.29
28.96
26.75
24.92
23.71
23.15
23.05
23.06
22.88
22.52
22.26
22.43
23.06
23.68
23.42
21.52
17.8
12.77
7.41
2.6
-1.37
-4.85
-8.5
-12.76
-17.55
-22.3
-26.43
-29.65
-32.22
-34.69
-37.64
-41.32
-45.52
-49.66
-52.96
-54.57
-53.73
-50.06
-43.66
-35.2
-25.78
-16.51
-8.17
-1.07
4.81
9.51
12.86
14.5
14.2
12.16
9.18
6.36
4.72
4.7
6.1
8.26
10.45
12.21
13.44
14.21
14.49
14.07
12.59
9.89
6.2
2.19
-1.26
-3.53
-4.54
-4.86
-5.36
-6.9
-9.92
-14.45
-20.11
-26.38
-32.66
-38.24
-42.3
-43.99
-42.6
-37.84
-30.04
-20.07
-9.14
1.55
11.07
18.91
24.88
29.07
31.63
32.75
32.56
31.22
28.98
26.16
23.18
20.41
18.12
16.4
15.2
14.42
13.98
13.82
13.84
13.8
13.31
11.97
9.51
5.97
1.72
-2.75
-6.97
-10.77
-14.21
-17.63
-21.49
-26.22
-32.15
-39.24
-46.89
-53.91
-58.69
-59.73
-56.18
-48.28
-37.26
-24.97
-13.18
-3.07
4.97
11.22
16.17
20.23
23.46
25.69
26.65
26.28
24.78
22.6
20.29
18.28
16.83
15.94
15.52
15.45
15.66
16.06
16.45
16.49
15.7
13.73
10.44
6.11
1.26
-3.53
-7.87
-11.69
-15.28
-19.13
-23.66
-29.05
-35.03
-40.87
-45.54
-47.89
-47.06
-42.68
-35.09
-25.21
-14.3
-3.59
5.98
13.95
20.17
24.73
27.79
29.5
30.05
29.59
28.34
26.56
24.51
22.48
20.72
19.36
18.43
17.83
17.38
16.88
16.2
15.26
13.96
12.12
9.5
6
1.69
-2.99
-7.49
-11.3
-14.28
-16.74
-19.37
-22.89
-27.79
-34.03
-40.93
-47.25
-51.45
-52.12
-48.4
-40.33
-28.95
-15.95
-3.2
7.97
16.96
23.93
29.36
33.65
36.88
38.88
39.43
38.56
36.59
34.07
31.58
29.55
28.17
27.41
27.08
26.97
26.9
26.79
26.58
26.19
25.43
24.03
21.78
18.6
14.74
10.62
6.74
3.37
0.47
-2.27
-5.29
-8.87
-13.04
-17.66
-22.58
-27.78
-33.35
-39.3
-45.25
-50.31
-53.19
-52.74
-48.39
-40.51
-30.28
-19.27
-8.83
0.33
8.1
14.69
20.19
24.38
26.82
27.3
26.07
24.01
22.16
21.26
21.44
22.16
22.65
22.39
21.38
20.1
19.2
19.09
19.74
20.8
21.75
22.17
21.8
20.54
18.46
15.7
12.56
9.35
6.4
3.9
1.86
0.13
-1.54
-3.37
-5.62
-8.46
-12.03
-16.33
-21.1
-25.7
-29.2
-30.6
-29.13
-24.59
-17.46
-8.76
0.28
8.61
15.53
20.71
24.09
25.66
25.46
23.66
20.63
16.99
13.44
10.56
8.61
7.52
7
6.73
6.56
6.45
6.34
6.03
5.12
3.22
0.13
-3.98
-8.57
-13
-16.78
-19.76
-22.1
-24.15
-26.32
-29
-32.54
-37.17
-42.9
-49.31
-55.47
-60.12
-61.94
-60.02
-54.2
-45.1
-33.88
-21.95
-10.53
-0.45
7.89
14.5
19.6
23.43
26.16
27.79
28.25
27.58
26
23.99
22.11
20.82
20.3
20.46
20.98
21.5
21.73
21.49
20.62
18.95
16.37
12.82
8.49
3.72
-1
-5.3
-9.03
-12.48
-16.24
-21.05
-27.37
-35.04
-43.13
-50.09
-54.25
-54.4
-50.23
-42.43
-32.36
-21.56
-11.25
-2.07
5.85
12.65
18.55
23.62
27.83
31.03
33.03
33.67
32.95
31.07
28.45
25.65
23.23
21.53
20.62
20.24
19.99
19.45
18.29
16.3
13.46
9.87
5.81
1.69
-2.11
-5.35
-8.09
-10.78
-14.11
-18.8
-25.3
-33.53
-42.71
-51.44
-57.98
-60.68
-58.52
-51.41
-40.29
-26.89
-13.09
-0.43
10.3
19.13
26.56
33.18
39.25
44.61
48.78
51.29
51.92
50.89
48.8
46.44
44.49
43.32
42.95
43.16
43.6
44.01
44.13
43.7
42.43
40.06
36.49
31.91
26.83
21.84
17.4
13.62
10.25
6.77
2.74
-2.11
-7.69
-13.71
-19.78
-25.56
-30.84
-35.61
-40.02
-44.42
-49.21
-54.67
-60.59
-66.2
-70.21
-71.25
-68.37
-61.43
-51.21
-39.13
-26.76
-15.34
-5.5
2.74
9.66
15.63
20.75
24.92
27.92
29.54
29.81
29.01
27.65
26.31
25.45
25.31
25.91
27.04
28.43
29.79
30.85
31.43
31.44
30.8
29.49
27.46
24.71
21.36
17.69
14.07
10.82
8.01
5.41
2.65
-0.56
-4.25
-8.11
-11.7
-14.72
-17.18
-19.46
-22.13
-25.73
-30.46
-36.08
-41.85
-46.71
-49.55
-49.52
-46.26
-40
-31.47
-21.65
-11.49
-1.74
7.12
14.68
20.53
24.29
25.75
25.01
22.61
19.39
16.32
14.12
13.15
13.3
14.17
15.22
16.03
16.37
16.16
15.45
14.34
12.92
11.29
9.5
7.56
5.35
2.72
-0.51
-4.42
-8.86
-13.46
-17.71
-21.16
-23.65
-25.46
-27.24
-29.83
-33.91
-39.65
-46.52
-53.33
-58.5
-60.53
-58.42
-52
-42.02
-29.9
-17.26
-5.49
4.61
12.88
19.61
25.23
30.01
33.88
36.61
37.92
37.83
36.67
35
33.41
32.24
31.52
31.05
30.54
29.8
28.81
27.63
26.34
24.86
23.02
20.55
17.27
13.11
8.26
3.06
-2.06
-6.75
-10.9
-14.65
-18.32
-22.22
-26.61
-31.6
-37.24
-43.61
-50.64
-58.02
-64.95
-70.21
-72.44
-70.64
-64.56
-54.86
-42.78
-29.8
-17.1
-5.47
4.78
13.61
21.08
27.32
32.36
36.2
38.78
40.09
40.19
39.36
38.04
36.65
35.57
34.86
34.45
34.22
34.1
34.12
34.28
34.37
33.97
32.6
29.93
26.02
21.28
16.33
11.71
7.66
4.02
0.39
-3.59
-8
-12.51
-16.56
-19.64
-21.62
-22.89
-24.33
-26.94
-31.52
-38.31
-46.81
-55.8
-63.68
-68.73
-69.64
-65.86
-57.72
-46.35
-33.35
-20.29
-8.26
2.23
11.17
18.8
25.28
30.64
34.84
37.85
39.75
40.74
41
40.68
39.91
38.87
37.9
37.39
37.68
38.85
40.59
42.28
43.09
42.34
39.65
35.09
29.17
22.66
16.39
10.95
6.6
3.21
0.42
-2.19
-4.83
-7.54
-10.22
-12.75
-15.15
-17.57
-20.21
-23.27
-26.84
-30.98
-35.67
-40.79
-45.98
-50.54
-53.55
-54.02
-51.38
-45.61
-37.34
-27.6
-17.49
-7.81
1.02
8.92
15.9
21.82
26.39
29.21
30.07
29.1
26.86
24.18
21.89
20.51
20.13
20.49
21.15
21.83
22.44
23.09
23.84
24.57
24.95
24.63
23.38
21.2
18.28
14.91
11.33
7.71
4.16
0.82
-2.22
-4.93
-7.47
-10.15
-13.33
-17.33
-22.33
-28.22
-34.69
-41.13
-46.66
-50.23
-50.93
-48.23
-42.29
-33.92
-24.36
-14.89
-6.48
0.43
5.85
9.99
13.11
15.28
16.41
16.4
15.24
13.17
10.67
8.37
6.82
6.35
6.89
8.06
9.39
10.52
11.26
11.69
11.92
12.04
11.99
11.6
10.71
9.17
6.95
4.03
0.46
-3.73
-8.42
-13.34
-18.16
-22.49
-26.14
-29.22
-32.18
-35.67
-40.29
-46.22
-53.03
-59.58
-64.29
-65.54
-62.24
-54.2
-42.23
-27.87
-12.84
1.51
14.49
25.97
36.05
44.71
51.68
56.53
59.05
59.48
58.45
56.77
55.08
53.62
52.34
50.96
49.34
47.57
45.86
44.46
43.36
42.35
41.04
39.1
36.33
32.81
28.81
24.68
20.74
17.13
13.76
10.36
6.61
2.27
-2.62
-7.79
-12.8
-17.3
-21.11
-24.45
-27.85
-31.95
-37.35
-44.25
-52.26
-60.33
-66.92
-70.47
-69.84
-64.81
-56.11
-45.1
-33.31
-21.83
-11.19
-1.36
7.86
16.64
24.88
32.27
38.33
42.55
44.5
43.99
41.23
36.85
31.83
27.23
23.83
21.88
21.17
21.17
21.47
21.84
22.22
22.57
22.6
21.85
19.88
16.59
12.36
8.01
4.42
2.13
1.08
0.64
-0.05
-1.67
-4.37
-7.82
-11.36
-14.4
-16.69
-18.37
-19.88
-21.75
-24.45
-28.34
-33.65
-40.31
-47.83
-55.23
-61.11
-64.01
-62.87
-57.45
-48.29
-36.58
-23.7
-10.93
0.78
10.88
19.06
25.26
29.6
32.32
33.67
33.87
33.04
31.32
28.96
26.37
24.08
22.55
21.97
22.16
22.68
23.01
22.83
22.07
20.86
19.38
17.72
15.8
13.49
10.62
7.16
3.18
-1.07
-5.28
-9.2
-12.68
-15.74
-18.59
-21.47
-24.62
-28.19
-32.29
-36.97
-42.15
-47.52
-52.5
-56.1
-57.27
-55.14
-49.42
-40.55
-29.56
-17.8
-6.45
3.66
12.19
19.04
24.24
27.75
29.56
29.66
28.25
25.75
22.78
20
17.97
16.91
16.69
16.9
17.08
16.87
16.2
15.14
13.92
12.67
11.36
9.85
7.92
5.34
2.02
-1.99
-6.46
-11.1
-15.57
-19.67
-23.3
-26.54
-29.64
-32.97
-36.97
-41.99
-48.06
-54.7
-60.89
-65.17
-66.12
-62.85
-55.3
-44.27
-31.21
-17.66
-4.95
6.13
15.28
22.56
28.18
32.35
35.25
36.92
37.47
37.01
35.75
34.04
32.24
30.63
29.39
28.57
28.06
27.76
27.47
27.02
26.16
24.7
22.49
19.56
16.11
12.48
8.99
5.8
2.81
-0.22
-3.6
-7.41
-11.55
-15.69
-19.55
-23.01
-26.25
-29.67
-33.69
-38.63
-44.61
-51.45
-58.68
-65.52
-70.97
-73.93
-73.53
-69.44
-62.03
-52.29
-41.45
-30.46
-19.67
-8.84
2.53
14.65
27.15
39.04
49.13
56.48
60.75
62.22
61.57
59.61
56.97
54.1
51.33
48.89
47.03
45.84
45.27
45.09
44.92
44.32
42.87
40.28
36.38
31.26
25.24
18.87
12.71
7.12
2.12
-2.56
-7.34
-12.44
-17.64
-22.43
-26.22
-28.75
-30.32
-31.62
-33.56
-36.95
-42.36
-50.09
-60.01
-71.38
-82.64
-91.49
-95.46
-92.76
-83.02
-67.6
-49.12
-30.51
-13.96
-0.48
10.15
18.75
26.11
32.56
37.99
42.01
44.4
45.24
44.92
44.02
43.01
42.13
41.33
40.45
39.32
38
36.73
35.77
35.28
35.05
34.61
33.35
30.88
27.21
22.8
18.38
14.65
11.94
10.1
8.58
6.67
3.89
0.18
-4.1
-8.35
-12.04
-14.98
-17.31
-19.42
-21.66
-24.27
-27.31
-30.85
-34.97
-39.79
-45.16
-50.46
-54.62
-56.32
-54.49
-48.81
-39.78
-28.61
-16.68
-5.13
5.31
14.35
21.84
27.59
31.36
32.95
32.41
30.18
27.03
23.85
21.33
19.81
19.18
19.09
19.19
19.31
19.49
19.8
20.2
20.4
20.07
18.9
16.89
14.3
11.47
8.65
5.86
2.92
-0.37
-4.05
-7.93
-11.69
-15.03
-17.85
-20.29
-22.68
-25.5
-29.12
-33.75
-39.31
-45.31
-50.94
-55.03
-56.4
-54.12
-47.85
-38.08
-25.98
-13.14
-1.13
8.98
16.7
22.16
25.69
27.7
28.47
28.19
27.06
25.39
23.53
21.89
20.7
20.03
19.86
20.11
20.65
21.39
22.16
22.73
22.87
22.38
21.15
19.2
16.68
13.8
10.79
7.77
4.77
1.63
-1.94
-6.25
-11.42
-17.35
-23.59
-29.61
-34.99
-39.7
-44.13
-48.95
-54.82
-61.98
-70.02
-77.85
-83.91
-86.63
-84.89
-78.31
-67.45
-53.57
-38.32
-23.28
-9.58
2.19
11.98
20.04
26.62
31.93
36.02
38.97
40.91
42.07
42.71
43.07
43.26
43.27
43.09
42.7
42.12
41.41
40.61
39.68
38.55
37.1
35.23
32.89
30.16
27.25
24.41
21.84
19.54
17.24
14.49
10.86
6.13
0.53
-5.44
-11.11
-15.96
-19.82
-22.91
-25.75
-28.99
-33.3
-39.11
-46.44
-54.72
-62.75
-68.82
-71.26
-68.87
-61.46
-49.88
-35.72
-20.76
-6.52
6.07
16.62
25.16
31.87
36.95
40.58
42.85
43.8
43.51
42.19
40.19
37.99
36.02
34.54
33.55
32.88
32.37
31.95
31.65
31.53
31.58
31.51
30.96
29.52
26.98
23.4
19.12
14.7
10.66
7.31
4.65
2.31
-0.19
-3.23
-6.91
-10.95
-14.89
-18.32
-21.12
-23.51
-25.95
-28.95
-32.89
-37.86
-43.66
-49.71
-55.09
-58.61
-59.11
-55.72
-48.25
-37.3
-24.16
-10.4
2.5
13.58
22.42
29.02
33.54
36.11
36.78
35.65
33.01
29.43
25.7
22.59
20.64
19.92
20.1
20.64
21
20.96
20.5
19.78
18.8
17.43
15.43
12.72
9.41
5.77
2.06
-1.66
-5.45
-9.42
-13.46
-17.26
-20.46
-22.89
-24.73
-26.56
-29.07
-32.8
-37.91
-44.13
-50.75
-56.74
-60.83
-61.83
-58.93
-52.03
-41.83
-29.63
-16.92
-4.94
5.6
14.47
21.77
27.6
31.94
34.69
35.81
35.46
34.02
32
29.96
28.33
27.27
26.77
26.64
26.68
26.77
26.85
26.88
26.73
26.14
24.83
22.66
19.74
16.37
12.89
9.53
6.24
2.82
-0.97
-5.25
-9.94
-14.79
-19.53
-23.97
-28.03
-31.8
-35.56
-39.74
-44.81
-51.09
-58.44
-66.08
-72.53
-76.06
-75.15
-69.21
-58.71
-45.11
-30.3
-16.03
-3.43
7.14
15.84
23.07
29.15
34.14
37.91
40.29
41.27
41.1
40.25
39.25
38.45
37.98
37.7
37.42
37.03
36.6
36.25
36
35.66
34.88
33.34
30.86
27.48
23.36
18.73
13.78
8.71
3.73
-0.96
-5.23
-9.16
-12.93
-16.73
-20.6
-24.31
-27.5
-29.88
-31.39
-32.33
-33.3
-34.95
-37.85
-42.35
-48.36
-55.38
-62.31
-67.62
-69.72
-67.37
-60.22
-48.94
-35.07
-20.49
-6.91
4.59
13.62
20.37
25.3
29
31.87
34.08
35.59
36.18
35.67
34.01
31.44
28.36
25.21
22.36
20.04
18.46
17.8
18.22
19.65
21.73
23.87
25.41
25.9
25.32
23.94
22.16
20.32
18.56
16.82
14.98
12.87
10.35
7.35
3.87
0.11
-3.52
-6.58
-8.72
-9.94
-10.69
-11.71
-13.75
-17.34
-22.48
-28.72
-35.28
-41.21
-45.59
-47.59
-46.62
-42.33
-34.88
-24.98
-13.88
-3.1
5.94
12.33
15.87
16.98
16.4
14.87
12.8
10.29
7.24
3.57
-0.62
-4.97
-8.98
-12.18
-14.3
-15.31
-15.37
-14.64
-13.22
-11.25
-9.02
-7.01
-5.76
-5.57
-6.29
-7.33
-8.02
-8.03
-7.69
-7.77
-9.12
-12.14
-16.42
-20.87
-24.2
-25.48
-24.61
-22.35
-20.13
-19.39
-21.11
-25.28
-30.85
-35.9
-38.16
-35.6
-27.15
-13.13
4.71
23.59
40.55
53.4
61.41
65.28
66.51
66.52
65.95
64.58
61.88
57.66
52.48
47.47
43.65
41.39
40.25
39.3
37.8
35.58
33.08
30.98
29.67
29
28.27
26.65
23.65
19.3
14.19
9.12
4.75
1.29
-1.47
-4.01
-6.73
-9.86
-13.29
-16.71
-19.76
-22.22
-24.13
-25.84
-27.96
-31.21
-36.18
-43.01
-51.1
-59.11
-65.18
-67.51
-64.98
-57.52
-46.17
-32.72
-19.08
-6.72
3.69
12.19
19.22
25.26
30.53
34.96
38.38
40.69
42.03
42.74
43.19
43.57
43.78
43.58
42.79
41.47
39.96
38.76
38.23
38.37
38.78
38.81
37.83
35.58
32.21
28.26
24.28
20.59
17.14
13.61
9.69
5.27
0.56
-4.07
-8.32
-12.13
-15.69
-19.21
-22.87
-26.68
-30.78
-35.45
-41
-47.49
-54.37
-60.36
-63.87
-63.59
-59.05
-50.83
-40.31
-29.07
-18.32
-8.73
-0.4
6.77
12.87
17.91
21.81
24.54
26.15
26.75
26.5
25.62
24.38
23.08
21.99
21.31
21.16
21.53
22.32
23.3
24.12
24.39
23.74
22.01
19.3
15.99
12.61
9.62
7.28
5.48
3.83
1.8
-0.96
-4.51
-8.5
-12.36
-15.57
-17.88
-19.46
-20.87
-22.71
-25.53
-29.5
-34.4
-39.54
-43.92
-46.45
-46.23
-42.81
-36.34
-27.46
-17.19
-6.54
3.61
12.57
19.86
25.15
28.24
29.26
28.65
27.15
25.49
24.19
23.39
22.89
22.42
21.88
21.42
21.3
21.77
22.82
24.07
25.01
25.14
24.19
22.24
19.59
16.65
13.73
10.96
8.21
5.26
1.88
-2.04
-6.32
-10.68
-14.77
-18.42
-21.7
-24.93
-28.53
-32.86
-38.08
-44.01
-50.2
-55.87
-60.09
-61.88
-60.51
-55.62
-47.49
-36.97
-25.28
-13.73
-3.33
5.38
12.37
17.97
22.55
26.31
29.25
31.24
32.14
32.03
31.15
29.84
28.48
27.33
26.58
26.29
26.44
26.91
27.42
27.61
27.15
25.78
23.48
20.42
16.89
13.23
9.66
6.26
2.99
-0.31
-3.79
-7.48
-11.27
-14.93
-18.19
-20.86
-22.98
-24.77
-26.71
-29.37
-33.34
-38.88
-45.72
-52.91
-58.96
-62.27
-61.64
-56.79
-48.38
-37.83
-26.64
-15.96
-6.31
2.28
9.94
16.74
22.57
27.27
30.76
33.15
34.68
35.63
36.15
36.31
36.06
35.39
34.38
33.26
32.34
31.9
32.08
32.74
33.48
33.77
33.11
31.27
28.31
24.62
20.68
16.94
13.67
10.87
8.37
5.81
2.89
-0.54
-4.42
-8.53
-12.48
-16
-19.01
-21.68
-24.41
-27.7
-32.01
-37.41
-43.57
-49.71
-54.75
-57.61
-57.47
-54.03
-47.58
-38.91
-29.01
-18.84
-9.06
0
8.23
15.63
22.12
27.47
31.42
33.82
34.8
34.74
34.24
33.87
34
34.71
35.83
37.07
38.14
38.75
38.63
37.48
35.11
31.52
27.04
22.33
18.17
15.12
13.3
12.24
11.11
9.11
5.83
1.42
-3.43
-7.84
-11.1
-13
-13.91
-14.66
-16.23
-19.35
-24.09
-29.77
-35.01
-38.16
-37.85
-33.49
-25.53
-15.35
-4.72
4.77
12.25
17.63
21.53
24.66
27.44
29.85
31.44
31.78
30.65
28.22
24.84
20.9
16.7
12.46
8.47
5.15
3.07
2.63
3.87
6.23
8.75
10.33
10.05
7.57
3.17
-2.36
-7.99
-12.84
-16.42
-18.69
-20.03
-20.95
-21.92
-23.25
-25.13
-27.63
-30.73
-34.12
-37.18
-38.99
-38.61
-35.41
-29.39
-21.22
-12.01
-2.87
5.43
12.51
18.33
22.84
25.95
27.45
27.24
25.42
22.41
18.91
15.65
13.27
12.14
12.23
13.14
14.28
15.03
15
14.13
12.67
10.94
9.13
7.19
4.86
1.91
-1.7
-5.71
-9.69
-13.3
-16.4
-19.13
-21.76
-24.53
-27.63
-31.14
-35.13
-39.67
-44.72
-49.94
-54.53
-57.38
-57.29
-53.49
-45.97
-35.59
-23.86
-12.4
-2.4
5.68
12.11
17.44
22.11
26.09
29
30.41
30.22
28.78
26.86
25.2
24.24
24.04
24.36
24.92
25.56
26.26
26.94
27.45
27.43
26.57
24.7
21.93
18.53
14.79
10.86
6.7
2.21
-2.55
-7.37
-11.88
-15.78
-19.06
-22.02
-25.13
-28.85
-33.47
-38.98
-45.1
-51.28
-56.72
-60.49
-61.68
-59.58
-54.02
-45.4
-34.7
-23.15
-11.95
-1.97
6.34
12.94
18.07
22.01
25.05
27.41
29.2
30.51
31.42
32.01
32.33
32.36
32.07
31.45
30.59
29.66
28.85
28.2
27.58
26.68
25.21
23.01
20.19
17.03
13.89
10.99
8.35
5.81
3.12
0.07
-3.4
-7.18
-11
-14.58
-17.65
-20.16
-22.27
-24.43
-27.29
-31.44
-37.18
-44.2
-51.49
-57.52
-60.67
-59.79
-54.6
-45.85
-34.97
-23.6
-13.08
-4.12
3.26
9.38
14.69
19.4
23.47
26.71
28.97
30.27
30.86
31.1
31.27
31.46
31.56
31.38
30.88
30.23
29.74
29.69
30.08
30.58
30.67
29.93
28.14
25.48
22.32
19.07
16
13.22
10.71
8.36
5.98
3.32
0.19
-3.53
-7.71
-12.02
-16.03
-19.4
-22.01
-24
-25.7
-27.5
-29.82
-32.98
-37.16
-42.23
-47.67
-52.49
-55.53
-55.71
-52.41
-45.67
-36.19
-25.08
-13.59
-2.8
6.52
14.02
19.68
23.71
26.47
28.29
29.42
30
30.13
29.89
29.45
29.04
28.86
29.07
29.72
30.73
31.93
33.1
33.99
34.41
34.18
33.25
31.67
29.61
27.34
25.17
23.32
21.8
20.38
18.54
15.79
11.79
6.68
1.05
-4.24
-8.3
-10.6
-11.25
-10.92
-10.66
-11.49
-14.03
-18.3
-23.75
-29.47
-34.62
-38.63
-41.22
-42.22
-41.48
-38.75
-33.92
-27.19
-19.12
-10.56
-2.32
5.04
11.31
16.39
20.17
22.38
22.72
21.12
17.88
13.72
9.6
6.39
4.67
4.6
6
8.39
11.19
13.89
16.05
17.37
17.71
17.04
15.42
13
10.01
6.77
3.65
0.97
-1.18
-2.9
-4.53
-6.4
-8.67
-11.25
-13.87
-16.3
-18.52
-20.79
-23.55
-27.19
-31.7
-36.58
-40.85
-43.34
-43
-39.35
-32.63
-23.86
-14.36
-5.43
2.18
8.35
13.41
17.7
21.31
23.9
25
24.38
22.22
19.19
16.12
13.69
12.2
11.51
11.23
10.98
10.45
9.59
8.5
7.34
6.24
5.13
3.77
1.8
-1.11
-5.1
-9.96
-15.22
-20.24
-24.5
-27.74
-30.06
-31.78
-33.28
-34.87
-36.67
-38.8
-41.36
-44.52
-48.25
-52.18
-55.46
-56.89
-55.29
-50.03
-41.34
-30.3
-18.41
-7.12
2.69
10.77
17.36
22.82
27.36
30.94
33.37
34.59
34.7
34.07
33.11
32.14
31.28
30.47
29.62
28.68
27.73
26.94
26.41
26.05
25.58
24.69
23.1
20.81
18.01
14.99
11.92
8.8
5.39
1.5
-2.94
-7.65
-12.15
-16
-19.03
-21.58
-24.31
-28.01
-33.26
-40.12
-48.09
-56.06
-62.61
-66.23
-65.81
-60.93
-52.07
-40.51
-27.97
-16.02
-5.68
2.75
9.54
15.1
19.73
23.44
26.11
27.66
28.23
28.06
27.46
26.63
25.68
24.72
23.84
23.2
22.9
22.89
23.03
23.14
23.08
22.73
22.01
20.78
18.88
16.24
12.98
9.4
5.87
2.72
0.05
-2.23
-4.35
-6.55
-9.09
-12.2
-16
-20.46
-25.28
-29.87
-33.37
-34.95
-34.04
-30.49
-24.68
-17.27
-9.1
-0.94
6.62
13.13
18.28
21.85
23.73
24.03
23.04
21.29
19.4
17.91
17.1
16.97
17.23
17.5
17.53
17.24
16.74
16.22
15.77
15.29
14.57
13.33
11.36
8.61
5.16
1.24
-2.81
-6.69
-10.12
-13.02
-15.53
-18.02
-21
-24.93
-30.02
-36.08
-42.45
-48.08
-51.8
-52.56
-49.83
-43.72
-35.08
-25.14
-15.17
-6.12
1.62
8.1
13.52
17.99
21.37
23.35
23.75
22.77
20.92
18.96
17.47
16.71
16.5
16.45
16.21
15.63
14.81
13.9
13.02
12.15
11.09
9.57
7.29
4.04
-0.2
-5.25
-10.7
-16.09
-21.01
-25.31
-29.13
-32.85
-36.87
-41.43
-46.5
-51.81
-56.9
-61.17
-63.88
-64.27
-61.67
-55.7
-46.58
-35.02
-22.15
-9.12
3.24
14.59
24.98
34.56
43.22
50.55
56.02
59.21
60.2
59.48
57.83
55.98
54.4
53.23
52.36
51.66
51.06
50.56
50.18
49.84
49.37
48.54
47.14
44.99
42.02
38.31
34.08
29.61
25.22
21.12
17.31
13.57
9.54
4.96
-0.22
-5.69
-11.05
-15.91
-20.14
-23.92
-27.56
-31.43
-35.74
-40.53
-45.74
-51.02
-55.77
-59.09
-59.99
-57.74
-52.16
-43.87
-34.02
-23.85
-14.27
-5.6
2.25
9.5
16.26
22.34
27.48
31.4
34
35.32
35.52
34.91
33.89
32.87
32.22
32.08
32.39
32.92
33.41
33.75
33.93
33.95
33.76
33.23
32.14
30.4
28.03
25.22
22.19
19.14
16.16
13.18
10.1
6.81
3.26
-0.5
-4.35
-8.22
-12.03
-15.81
-19.56
-23.27
-26.8
-30.02
-32.77
-35.09
-37.23
-39.65
-42.86
-47.2
-52.54
-58.21
-63.1
-65.9
-65.57
-61.6
-54.23
-44.35
-33.22
-22.1
-11.87
-3
4.51
10.87
16.35
21.1
25.1
28.2
30.32
31.47
31.91
31.96
31.93
31.97
31.98
31.73
31.01
29.7
27.91
25.86
23.85
22.07
20.65
19.59
18.87
18.42
18.19
18.1
18.04
17.9
17.61
17.08
16.32
15.24
13.81
11.89
9.42
6.37
2.8
-1.17
-5.35
-9.55
-13.5
-16.96
-19.75
-21.77
-23.18
-24.31
-25.65
-27.74
-30.99
-35.54
-41.08
-46.83
-51.63
-54.2
-53.5
-49.12
-41.47
-31.68
-21.18
-11.28
-2.79
4.14
9.72
14.33
18.2
21.32
23.5
24.59
24.64
23.9
22.82
21.82
21.17
20.88
20.82
20.82
20.87
21.08
21.6
22.45
23.41
24.04
23.92
22.79
20.68
17.92
14.97
12.22
9.94
8.13
6.64
5.23
3.72
1.99
0.11
-1.84
-3.73
-5.54
-7.35
-9.24
-11.31
-13.59
-16.02
-18.59
-21.4
-24.64
-28.46
-32.85
-37.49
-41.78
-45.09
-46.91
-47.05
-45.61
-42.85
-38.99
-34.2
-28.62
-22.55
-16.55
-11.47
-8.14
-7.2
-8.85
-12.76
-18.26
-24.52
-30.82
-36.6
-41.57
-45.54
-48.51
-50.62
-52.19
-53.71
-55.74
-58.7
-62.69
-67.42
-72.33
-76.82
-80.48
-83.21
-85.13
-86.47
-87.46
-88.27
-88.84
-88.91
-87.86
-84.81
-78.76
-69
-55.46
-38.93
-21.09
-4.12
9.77
18.96
22.74
21.6
17.05
11.27
6.58
4.81
7.01
13.19
22.52
33.51
44.48
53.98
61.16
65.99
69.06
71.21
72.97
74.35
74.93
74.27
72.31
69.47
66.4
63.58
61.07
58.68
56.24
53.93
52.16
51.35
51.53
52.34
53.12
53.36
52.95
52.12
51.2
50.33
49.32
47.81
45.4
41.95
37.55
32.5
27.14
21.75
16.59
11.85
7.71
4.27
1.47
-0.92
-3.31
-6.15
-9.83
-14.47
-19.87
-25.48
-30.52
-34.14
-35.7
-35.01
-32.44
-28.83
-25.12
-21.97
-19.46
-17.13
-14.27
-10.4
-5.56
-0.42
4.07
6.92
7.62
6.22
3.34
0.02
-2.58
-3.43
-1.81
2.4
8.63
15.63
21.6
24.59
23.23
17.54
9.43
2.39
0.17
5.09
16.78
32.25
47.5
59.59
68.32
76.26
87.28
104.51
128.62
157.55
187.35
213.65
232.79
242.53
242.21
232.77
216.69
197.62
179.58
165.84
158.2
156.5
159.08
163.58
167.72
169.83
168.89
164.53
157
147.28
136.97
127.85
121.28
117.45
115.19
112.43
107
97.47
83.52
65.75
45.15
22.63
-1.07
-25.23
-49.01
-71.4
-91.49
-108.64
-122.59
-133.42
-141.43
-147.09
-150.97
-153.83
-156.32
-158.85
-161.48
-163.99
-166.08
-167.53
-168.27
-168.07
-166.49
-162.83
-156.51
-147.43
-136.15
-123.82
-111.76
-100.98
-91.91
-84.46
-78.21
-72.76
-67.83
-63.27
-58.93
-54.64
-50.13
-45.22
-39.82
-34.06
-28.24
-22.69
-17.78
-13.77
-10.82
-8.98
-8.19
-8.3
-9.09
-10.24
-11.4
-12.24
-12.57
-12.39
-11.86
-11.26
-10.88
-10.88
-11.3
-12.06
-12.94
-13.69
-14.04
-13.76
-12.7
-10.96
-8.9
-7.1
-6.24
-6.94
-9.4
-13.29
-17.7
-21.53
-23.9
-24.58
-24.08
-23.35
-23.32
-24.39
-26.3
-28.21
-29.17
-28.42
-25.69
-21.3
-16.14
-11.53
-8.95
-9.63
-13.91
-20.94
-29.01
-36.23
-41.58
-45.36
-48.93
-53.77
-60.27
-67.21
-72.04
-71.99
-65.2
-51.54
-32.43
-10.39
12.02
32.72
50.26
63.8
72.98
77.98
79.75
79.93
80.43
82.71
87.17
92.88
98.08
101.11
101.21
98.61
94.16
88.36
80.92
70.88
57.23
39.69
18.85
-4.31
-29
-54.95
-82.08
-110.03
-137.84
-164.24
-188.08
-208.79
-226.29
-240.53
-251.15
-257.75
-260.33
-260.05
-259.04
-259.77
-264.17
-273.08
-286.4
-303.51
-323.42
-344.39
-363.45
-376.5
-379.27
-368.97
-345.6
-312.05
-272.86
-232.28
-192.67
-154.23
-115.88
-76.53
-35.96
5.15
45.85
85.67
124.89
164.25
204.53
246.32
290.01
335.69
382.79
429.64
473.06
508.75
532.39
541.08
534.46
514.81
486.16
452.8
418.21
384.62
353.53
326.24
304.03
287.62
276.35
267.7
257.88
243
220.64
190.62
154.76
115.81
76.05
36.64
-2.16
-40.08
-75.95
-107.49
-131.9
-147.14
-152.95
-151.14
-144.97
-137.82
-132.07
-128.39
-126.03
-123.59
-120
-115.01
-109.29
-103.92
-99.88
-97.66
-97.16
-97.93
-99.35
-100.86
-101.92
-102.08
-100.99
-98.49
-94.65
-89.67
-83.88
-77.63
-71.29
-65.16
-59.54
-54.63
-50.48
-46.94
-43.72
-40.52
-37.06
-33.27
-29.19
-25
-20.96
-17.39
-14.6
-12.82
-12.15
-12.47
-13.48
-14.86
-16.36
-17.91
-19.45
-20.94
-22.16
-22.81
-22.59
-21.34
-19.19
-16.48
-13.72
-11.42
-9.94
-9.43
-9.8
-10.76
-11.97
-13.04
-13.71
-13.8
-13.22
-12.04
-10.45
-8.74
-7.18
-5.94
-4.9
-3.76
-2.2
-0.03
2.66
5.53
8.28
10.75
12.95
15
16.95
18.69
19.97
20.59
20.45
19.65
18.4
17.05
16.03
15.79
16.65
18.67
21.51
24.52
26.97
28.36
28.61
28.01
27.06
26.12
25.22
24.18
22.78
20.89
18.59
16.04
13.37
10.58
7.63
4.48
1.25
-1.92
-4.94
-7.8
-10.58
-13.37
-16.09
-18.45
-20.08
-20.6
-19.82
-17.75
-14.66
-10.97
-7.08
-3.37
-0.09
2.61
4.71
6.18
7.09
7.5
7.62
7.7
7.99
8.6
9.47
10.27
10.65
10.36
9.42
8.12
6.93
6.22
6.16
6.6
7.13
7.23
6.46
4.62
1.84
-1.47
-4.8
-7.69
-10
-11.87
-13.6
-15.46
-17.47
-19.44
-20.94
-21.68
-21.65
-21.26
-21.18
-22.05
-24.07
-26.81
-29.12
-29.46
-26.37
-19.17
-8.25
4.86
17.98
29.03
36.69
40.89
42.86
44.73
49.04
57.89
72.2
91.2
112.29
131.63
145.32
150.55
146.59
134.87
118.32
100.26
83.37
69.18
58.18
50.26
45.1
42.34
41.47
41.67
41.85
40.74
37.08
29.81
18.33
2.78
-15.76
-35.38
-53.67
-68.53
-78.93
-85.29
-89.18
-92.51
-96.64
-101.7
-106.78
-110.55
-112.12
-111.47
-109.3
-106.36
-102.91
-98.45
-92.14
-83.44
-72.63
-60.83
-49.65
-40.39
-33.55
-28.71
-24.93
-21.26
-17.23
-13.01
-9.07
-5.92
-3.68
-2.12
-0.72
1.05
3.55
6.81
10.67
14.76
18.69
22.1
24.66
26.15
26.52
25.83
24.34
22.38
20.27
18.3
16.64
15.33
14.32
13.45
12.56
11.54
10.41
9.26
8.34
7.86
7.92
8.42
9.15
9.77
10.01
9.65
8.54
6.67
4.06
0.95
-2.37
-5.48
-7.96
-9.51
-10.06
-9.69
-8.64
-7.18
-5.51
-3.72
-1.87
0.03
1.89
3.6
5.05
6.16
6.93
7.39
7.63
7.68
7.57
7.25
6.75
6.12
5.53
5.16
5.13
5.47
6.09
6.83
7.51
8.07
8.47
8.7
8.77
8.68
8.38
7.9
7.28
6.59
5.87
5.1
4.22
3.17
1.94
0.53
-0.93
-2.32
-3.46
-4.24
-4.68
-4.9
-5.13
-5.65
-6.56
-7.79
-9.15
-10.41
-11.47
-12.34
-13.11
-13.75
-14.1
-13.92
-12.95
-11.1
-8.45
-5.24
-1.82
1.46
4.25
6.31
7.51
7.98
7.99
7.91
7.99
8.3
8.7
8.99
9.05
8.91
8.77
8.74
8.87
9.03
9.06
8.81
8.3
7.6
6.86
6.17
5.59
5.12
4.78
4.53
4.32
4.03
3.51
2.62
1.26
-0.53
-2.66
-4.94
-7.2
-9.3
-11.17
-12.78
-14.15
-15.35
-16.48
-17.69
-19.12
-20.79
-22.57
-24.16
-25.14
-25.18
-24.13
-22.24
-19.99
-18
-16.73
-16.36
-16.69
-17.36
-18.01
-18.46
-18.88
-19.74
-21.66
-25.18
-30.53
-37.46
-45.29
-53.14
-60.22
-66.22
-71.48
-76.89
-83.62
-92.63
-104.3
-118.27
-133.65
-149.28
-164.22
-178.03
-190.85
-203.46
-217.25
-234.16
-256.22
-284.75
-319.24
-356.62
-391.49
-417.52
-429.64
-425.77
-407.6
-379.54
-346.93
-314.03
-283.06
-254.44
-227.85
-203.1
-180.48
-160.42
-142.91
-127.24
-112.27
-97.03
-81.14
-64.98
-49.47
-35.56
-23.77
-13.98
-5.57
2.33
10.4
18.92
27.71
36.27
44.12
50.94
56.69
61.62
66.11
70.53
75.21
80.37
86.12
92.43
99.2
106.17
113.02
119.49
125.54
131.41
137.62
144.81
153.5
163.8
175.43
187.81
200.28
212.48
224.43
236.59
249.76
264.94
283.24
305.52
331.78
360.55
388.67
411.76
425.49
427.1
416.5
396.23
370.42
343.04
316.62
291.88
268.29
245.04
221.94
199.39
178.09
158.33
139.86
121.96
104.05
86.05
68.43
52.09
37.7
25.46
14.89
5.14
-4.67
-15.12
-26.31
-37.96
-49.68
-61.18
-72.47
-83.73
-95.15
-106.72
-118.16
-128.87
-138.22
-145.53
-149.95
-150.33
-145.19
-132.91
-112.36
-83.64
-48.57
-10.52
26.62
59.76
87.51
110.42
130.1
148.08
164.88
179.83
191.54
198.71
200.76
197.94
191.03
180.96
168.6
154.61
139.61
124.1
108.42
92.81
77.46
62.98
50.31
40.65
34.91
33.24
34.89
38.4
42.14
44.86
45.92
45.28
43.24
40.25
36.77
33.27
30.15
27.54
25.13
22.27
18.4
13.71
9.7
9.11
15.13
30.12
54.42
85.82
120.04
151.95
177.04
192.45
197.28
192.05
178.11
157.1
131.05
102.47
74.32
49.42
29.53
14.69
3.16
-7.72
-20.26
-35.52
-53.02
-71.47
-89.58
-106.82
-123.38
-139.77
-156.16
-172.17
-186.97
-199.71
-209.76
-216.8
-220.72
-221.57
-219.76
-216.21
-212.44
-210.02
-209.82
-211.18
-211.91
-209.1
-200.5
-185.76
-166.61
-146.05
-126.93
-110.76
-97.43
-85.91
-75.27
-65.32
-56.51
-49.26
-43.47
-38.4
-33.26
-27.77
-22.42
-18.14
-15.54
-14.44
-13.72
-12
-8.32
-2.76
3.64
9.56
14.11
17.4
20.3
23.85
28.53
34.04
39.61
44.59
48.86
52.86
57.09
61.59
65.89
69.27
71.33
72.32
73.07
74.49
77.04
80.51
84.14
87.06
88.71
89.18
89.21
89.89
92.29
96.87
103.14
109.73
114.89
117.3
116.82
114.65
112.68
112.5
114.38
116.82
116.87
111.08
96.74
72.88
40.91
4.58
-30.49
-57.98
-72.51
-71.24
-54.94
-27.92
3.19
31.46
51.56
60.81
59.25
48.89
32.81
14.28
-3.84
-19.42
-31.3
-39.2
-43.56
-45.06
-44.34
-41.86
-38.04
-33.52
-29.16
-25.79
-23.95
-23.74
-24.98
-27.52
-31.28
-36.17
-41.8
-47.29
-51.59
-53.93
-54.23
-53.14
-51.61
-50.33
-49.46
-48.62
-47.39
-45.73
-44.05
-43.03
-43.2
-44.6
-46.74
-48.81
-50.06
-50.02
-48.69
-46.5
-44.21
-42.55
-42.05
-42.91
-44.9
-47.52
-50.08
-51.95
-52.76
-52.73
-52.76
-54.08
-57.52
-62.62
-67.13
-67.49
-60.29
-43.96
-19.68
8.95
37.57
62.98
84.18
102.02
117.84
132.09
143.68
150.7
151.57
146.28
136.46
124.63
112.88
101.87
90.67
77.27
59.76
37.2
10.29
-18.82
-47.12
-71.75
-90.78
-103.55
-110.44
-112.34
-110.15
-104.54
-96.1
-85.66
-74.45
-64.09
-56.37
-52.76
-53.98
-59.77
-68.58
-77.78
-83.95
-83.67
-74.5
-55.73
-28.73
3.47
37.17
69.03
97.01
120.52
140.36
158
174.91
191.89
208.66
223.86
235.54
241.88
241.83
235.36
223.33
206.93
187.23
164.94
140.28
113.3
83.96
52.5
19.41
-14.6
-48.78
-82.54
-115.27
-146.06
-173.33
-194.98
-209.09
-214.89
-213.56
-207.99
-201.64
-197.09
-195.07
-194.62
-194.18
-192.88
-191.17
-190.45
-192.02
-196.04
-201.1
-204.72
-204.38
-198.56
-187.22
-171.64
-153.81
-135.52
-117.8
-100.74
-83.79
-66.35
-48.1
-29.19
-9.97
9.26
28.32
46.94
64.52
79.91
91.66
98.52
99.79
95.68
87.09
75.52
62.58
49.86
38.63
29.7
23.32
19.11
16.39
14.44
12.87
11.7
11.07
10.91
10.77
10.07
8.44
6.09
3.73
2.12
1.59
1.85
2.24
2.35
2.52
3.8
7.65
15.18
26.61
41.2
57.46
73.73
88.61
101.25
111.13
117.94
121.29
120.79
116.22
107.79
96.48
83.89
71.96
62.35
55.93
52.5
50.86
49.24
45.87
39.52
29.82
17.4
3.51
-10.37
-23.06
-34.01
-43.3
-51.47
-59.08
-66.4
-73.13
-78.36
-80.81
-79.14
-72.53
-61.09
-46.24
-30.49
-16.78
-7.62
-4.24
-6.21
-11.64
-17.8
-21.83
-21.53
-15.78
-4.68
10.64
28.44
46.8
64
78.55
89.21
94.77
94.17
86.58
71.61
49.54
21.48
-10.49
-43.3
-73.17
-96.35
-110.21
-114.28
-110.6
-103.09
-96.05
-92.5
-93.1
-96.21
-98.99
-98.77
-94.16
-85.35
-73.7
-60.97
-48.74
-37.96
-28.95
-21.59
-15.6
-10.72
-6.73
-3.16
0.85
6.5
14.94
26.67
41.01
56.07
69.19
77.88
80.72
77.8
70.72
61.87
53.66
47.8
44.97
44.87
46.55
48.82
50.53
50.87
49.39
46.07
41.19
35.17
28.38
21.06
13.27
5.08
-3.18
-10.79
-16.62
-19.39
-18.22
-13.03
-4.82
4.61
13.29
19.7
23.18
23.98
22.76
20.13
16.33
11.12
4.12
-4.82
-15.42
-26.88
-38.15
-48.24
-56.43
-62.41
-66.2
-67.93
-67.63
-65.14
-60.21
-52.82
-43.47
-33.23
-23.29
-14.42
-6.49
1.48
10.77
21.91
33.94
44.44
50.25
48.9
39.8
24.66
6.85
-10
-23.46
-33.08
-40.25
-47.3
-56.45
-69
-85.1
-103.72
-122.74
-139.11
-149.19
-149.54
-138.08
-115.12
-83.64
-48.59
-15.33
11.72
29.99
38.73
38.69
31.75
20.85
9.63
1.78
-0.32
3.47
10.89
18.46
23.43
25.24
25.82
28.4
35.59
47.93
63.74
80.06
94.18
104.6
111.11
114.29
114.75
112.86
108.91
103.43
97.36
91.81
87.6
84.7
82.14
78.15
70.91
59.33
43.57
25.13
6.25
-10.87
-24.8
-35.12
-42.18
-46.55
-48.75
-49.3
-49.01
-48.95
-50.2
-53.18
-57.35
-61.59
-65.02
-67.79
-71.06
-76.18
-83.55
-92.03
-99.39
-103.37
-102.9
-98.33
-90.92
-82.07
-72.8
-63.85
-55.83
-49.11
-43.23
-36.52
-26.62
-11.82
7.35
27.59
44
52.43
51.64
43.87
33.45
24.28
17.97
13.44
8.4
1.32
-7.28
-14.89
-18.41
-15.73
-6.79
6.4
20.71
33.17
41.98
46.97
49.36
50.96
53.25
56.69
60.75
64.4
66.94
68.56
70.08
72.42
75.71
79.05
80.87
79.73
75.04
67.32
57.94
48.46
40.09
33.28
27.76
22.78
17.53
11.37
4.13
-3.86
-11.95
-19.42
-25.71
-30.58
-34.09
-36.52
-38.34
-40.21
-43.03
-47.9
-55.89
-67.69
-83.29
-101.95
-122.3
-142.8
-162.01
-178.81
-192.44
-202.32
-207.96
-208.96
-205.02
-196.12
-182.5
-164.56
-142.68
-117.02
-87.63
-54.7
-19.18
17.03
51.01
79.63
100.55
113.22
119.12
121
121.72
122.89
124.54
125.51
124.49
120.99
115.72
110.16
105.77
103.32
102.68
103.09
103.63
103.56
102.35
99.61
94.89
87.76
77.98
65.59
51.14
35.46
19.47
3.84
-11.25
-25.99
-40.68
-55.32
-69.43
-82.05
-92.19
-99.27
-103.27
-104.7
-104.15
-101.84
-97.56
-90.77
-81.18
-69.15
-55.75
-42.42
-30.45
-20.52
-12.64
-6.49
-1.85
1.19
2.36
1.56
-0.82
-3.9
-6.65
-8.42
-9.18
-9.45
-9.87
-10.74
-11.88
-12.7
-12.6
-11.16
-8.29
-4.14
1.03
6.91
13.08
19.03
24.2
28.15
30.7
31.99
32.45
32.58
32.76
33.12
33.56
33.84
33.79
33.35
32.66
31.9
31.25
30.81
30.51
30.19
29.61
28.54
26.9
24.72
22.22
19.61
17.06
14.65
12.48
10.66
9.38
8.72
8.62
8.74
8.57
7.64
5.71
2.9
-0.46
-3.94
-7.3
-10.37
-13.06
-15.23
-16.6
-16.85
-15.77
-13.42
-10.1
-6.31
-2.58
0.62
2.98
4.4
4.94
4.82
4.35
3.82
3.38
3.05
2.66
2.02
0.99
-0.39
-1.95
-3.42
-4.56
-5.18
-5.25
-4.78
-3.92
-2.85
-1.9
-1.38
-1.52
-2.37
-3.72
-5.14
-6.2
-6.58
-6.2
-5.26
-4.08
-3.03
-2.34
-2.02
-1.92
-1.81
-1.5
-0.93
-0.21
0.44
0.71
0.3
-1.01
-3.26
-6.23
-9.45
-12.27
-14.1
-14.58
-13.7
-11.71
-9.04
-6.08
-3.18
-0.59
1.47
2.8
3.29
2.96
2.09
1.02
0.06
-0.62
-1.09
-1.56
-2.31
-3.59
-5.57
-8.35
-11.85
-15.84
-19.88
-23.37
-25.74
-26.6
-25.87
-23.74
-20.61
-16.91
-13
-9.26
-6.01
-3.61
-2.32
-2.13
-2.71
-3.47
-3.78
-3.25
-1.86
0.03
1.9
3.27
3.81
3.39
1.96
-0.41
-3.42
-6.51
-8.85
-9.63
-8.35
-5.12
-0.62
4.27
8.85
12.87
16.45
19.81
22.92
25.45
26.92
27.04
25.98
24.23
22.39
20.81
19.59
18.53
17.52
16.48
15.52
14.65
13.82
12.84
11.51
9.79
7.85
6.02
4.71
4.25
4.82
6.3
8.35
10.47
12.13
12.9
12.53
10.99
8.5
5.4
2.16
-0.78
-3.17
-5.02
-6.67
-8.66
-11.55
-15.59
-20.64
-26.13
-31.33
-35.57
-38.46
-39.93
-40.09
-39.22
-37.67
-35.83
-34.14
-32.97
-32.54
-32.81
-33.53
-34.38
-34.95
-34.72
-32.88
-28.34
-20.07
-7.58
8.55
26.62
44.27
59.27
70.32
77.32
80.95
82.16
81.68
79.91
77.26
74.38
72.14
71.25
71.79
72.91
73.19
71.17
66.07
58.07
48.24
37.99
28.53
20.44
13.65
7.64
1.83
-4.17
-10.35
-16.4
-21.74
-25.7
-27.59
-26.92
-23.45
-17.34
-9.08
0.6
10.9
21.14
30.93
40.19
49.12
57.95
66.8
75.52
83.76
91.19
97.63
103.15
107.79
111.41
113.44
113.1
109.75
103.38
94.75
85.21
76.21
68.76
63.08
58.73
54.82
50.41
44.77
37.46
28.29
17.31
4.7
-9.16
-23.83
-38.78
-53.52
-67.69
-81.05
-93.55
-105.18
-115.82
-125.03
-131.86
-135.08
-133.52
-126.77
-115.59
-101.83
-87.94
-76.1
-67.65
-62.92
-61.61
-63.23
-67.33
-73.39
-80.42
-86.94
-91.28
-92.32
-90.04
-85.57
-80.59
-76.48
-73.45
-70.53
-66.05
-58.56
-47.61
-34
-19.5
-6.15
4.58
12.17
17.13
20.58
23.7
27.26
31.4
35.71
39.57
42.35
43.65
43.37
41.69
39.01
35.88
32.9
30.69
29.69
30.15
32.06
35.06
38.56
41.88
44.46
46.09
47.01
47.73
48.63
49.57
49.76
48.03
43.53
36.22
27
17.4
8.72
1.56
-4.35
-9.78
-15.41
-21.34
-27.25
-32.63
-37.2
-41.08
-44.63
-48.14
-51.66
-54.93
-57.61
-59.4
-60.2
-60.08
-59.23
-57.91
-56.55
-55.6
-55.44
-56.14
-57.24
-57.85
-56.84
-53.38
-47.25
-39.06
-30.04
-21.56
-14.66
-9.83
-7.01
-5.96
-6.45
-8.26
-11.02
-13.98
-15.97
-15.68
-12.16
-5.22
4.42
15.36
26.1
35.53
43.2
49.29
54.17
58.05
60.67
61.45
59.72
55.24
48.33
39.86
30.78
21.78
13.03
4.33
-4.51
-13.32
-21.35
-27.53
-30.83
-30.76
-27.61
-22.38
-16.41
-10.91
-6.55
-3.17
0.1
4.55
11.35
21.09
33.58
47.99
63.18
78.11
92.1
104.77
115.87
125.06
131.91
136.02
137.28
135.89
132.38
127.45
121.77
115.82
109.91
104.05
98.04
91.37
83.11
72.08
57.14
37.81
14.75
-10.1
-34.04
-54.59
-70.33
-81.34
-88.85
-94.5
-99.6
-104.9
-110.78
-117.5
-125.29
-134.1
-143.3
-151.72
-158.07
-161.48
-161.76
-158.98
-152.93
-142.81
-127.6
-106.86
-81.67
-55.02
-31.09
-13.98
-6.31
-8.48
-18.64
-33.41
-48.78
-61.02
-67.42
-67.06
-61.15
-52.72
-45.66
-43.2
-46.56
-54.27
-62.66
-66.97
-62.71
-46.8
-18.12
22.08
69.96
119.16
161.7
190.21
200.63
194.37
178.06
160.84
150.27
149.07
154.65
161.29
163.64
159.21
148.74
134.34
117.47
98
74.94
48.09
19.04
-9.06
-32.91
-50.51
-61.75
-67.85
-70.32
-70.05
-67.08
-60.83
-50.66
-36.24
-17.79
3.8
27.11
50.48
72.33
91.48
107.17
118.91
126.5
130.16
130.81
129.92
128.88
128.04
125.98
119.88
106.83
85.49
57.01
24.6
-7.95
-37.93
-64.51
-88.43
-111.03
-133.34
-155.62
-177.37
-197.48
-214.22
-225.27
-227.95
-219.83
-199.73
-168.56
-129.71
-88.47
-50.59
-20.46
0.51
14.41
25.97
40.41
60.87
86.82
114.11
136.87
150.12
151.78
142.91
126.49
105.78
83.21
60.25
37.93
17.41
-0.08
-13.75
-23.68
-30.86
-36.69
-42.15
-47.21
-50.88
-51.66
-48.43
-41.14
-31.12
-20.85
-13.36
-11.22
-15.62
-25.86
-39.46
-53.11
-63.99
-70.71
-73.67
-74.43
-74.54
-74.64
-74.26
-72.33
-68.22
-62.32
-56.01
-50.99
-48.33
-47.97
-48.75
-48.97
-47.1
-42.28
-34.44
-24.19
-12.68
-1.41
7.93
13.91
15.67
13.31
7.78
0.49
-7.16
-14.25
-20.29
-25.01
-27.99
-28.68
-26.67
-22.27
-16.65
-11.64
-9.02
-9.67
-13.13
-17.89
-22.21
-25.15
-27.04
-29.28
-33.48
-40.44
-49.53
-58.66
-64.7
-64.32
-54.78
-34.71
-4.55
33.13
73.86
111.99
141.85
159.17
162.1
151.63
131.22
105.89
81.02
61.16
49.16
45.82
49.99
59.15
70.2
80.1
86.34
87.08
81.37
69.37
52.52
33.37
15.05
0.29
-9.5
-14.69
-17.15
-19.43
-23.71
-30.98
-40.9
-52.04
-62.48
-70.49
-74.9
-75.23
-71.5
-63.88
-52.39
-36.99
-17.82
4.31
27.56
49.25
66.44
76.88
79.79
76.1
67.94
57.65
46.84
35.92
24.42
11.6
-2.87
-18.8
-35.69
-53.22
-71.42
-90.42
-109.95
-129.03
-146.19
-160.28
-171.38
-181.14
-192.2
-206.84
-225.52
-246.18
-264.78
-276.84
-279.12
-270.82
-253.5
-230.06
-203.4
-175.38
-146.66
-117.2
-86.85
-55.7
-23.85
9.05
44.25
83.62
128.6
178.91
231.76
281.92
323.33
351.22
363.81
362.73
351.96
335.84
317.41
297.7
276.28
252.38
225.86
197.53
168.75
140.91
114.96
91.47
70.72
52.87
37.93
25.79
16.18
8.68
2.71
-2.4
-7.32
-12.52
-18.06
-23.63
-28.71
-32.85
-35.92
-38.05
-39.46
-40.13
-39.85
-38.28
-35.35
-31.42
-27.2
-23.49
-20.91
-19.71
-19.84
-21.14
-23.37
-26.38
-30.02
-34.12
-38.57
-43.28
-48.18
-53.05
-57.38
-60.44
-61.54
-60.34
-57.22
-53.23
-49.69
-47.69
-47.62
-49
-50.76
-51.72
-51.15
-48.97
-45.61
-41.67
-37.56
-33.47
-29.53
-26.05
-23.56
-22.64
-23.53
-25.95
-29.01
-31.55
-32.64
-31.92
-29.82
-27.32
-25.54
-25.29
-26.77
-29.52
-32.59
-34.9
-35.59
-34.25
-30.96
-26.2
-20.58
-14.72
-9.04
-3.71
1.31
6.2
11.09
15.95
20.57
24.56
27.66
29.83
31.42
32.99
35.12
38.1
41.81
45.81
49.51
52.52
54.68
56.06
56.83
57.14
57.11
56.88
56.7
56.84
57.49
58.67
60.12
61.54
62.67
63.57
64.49
65.77
67.53
69.55
71.3
72.23
72.02
70.83
69.31
68.4
69.06
71.97
77.23
84.24
91.57
97.3
99.51
97.02
89.92
79.68
68.71
59.38
53.07
49.63
47.54
44.6
38.87
29.38
16.45
1.56
-13.16
-25.52
-33.86
-37.45
-36.63
-32.61
-26.97
-21.14
-16.01
-12.02
-9.38
-8.34
-9.27
-12.38
-17.49
-24.07
-31.44
-39.1
-46.94
-55.02
-63.3
-71.33
-78.36
-83.63
-86.64
-87.28
-85.76
-82.41
-77.68
-72.17
-66.73
-62.36
-59.81
-59.2
-59.94
-60.92
-61.1
-59.83
-57
-52.82
-47.66
-41.88
-36.02
-30.85
-27.27
-25.94
-26.86
-29.19
-31.57
-32.7
-32.07
-30.1
-27.88
-26.42
-25.99
-25.91
-25.08
-22.64
-18.68
-14.28
-11
-10.11
-11.91
-15.66
-19.87
-22.98
-23.84
-21.93
-17.28
-10.24
-1.3
8.91
19.56
29.63
38.07
44.1
47.47
48.75
49.2
50.27
52.81
56.41
59.13
58.13
50.97
36.89
17.35
-4.26
-23.99
-38.75
-47.09
-49.29
-46.6
-40.44
-31.95
-21.94
-11.18
-0.57
9.06
17.2
24.01
30.28
37.12
45.3
54.59
63.48
69.52
70.09
63.52
49.81
30.54
8.26
-14.5
-35.87
-54.84
-70.92
-83.92
-93.78
-100.75
-105.58
-109.45
-113.66
-119.09
-125.8
-133.03
-139.48
-143.91
-145.53
-144.22
-140.43
-134.84
-127.99
-119.84
-109.55
-95.51
-75.58
-47.6
-10.32
35.75
87.49
139.17
183.43
213.2
224
215.78
193.3
164.71
138.77
121.82
115.59
116.87
119.27
116.08
103.23
80.86
53.06
25.79
4.29
-8.92
-14.44
-14.93
-13.21
-10.74
-7.17
-1.07
9
23.53
41.58
60.99
78.75
91.48
95.9
89.4
70.81
41.06
3.26
-37.78
-76.81
-109.44
-133.16
-147.53
-153.78
-154.01
-150.54
-145.44
-140.54
-137.19
-136.29
-138.05
-141.89
-146.54
-150.31
-151.7
-149.8
-144.69
-137.24
-128.83
-120.68
-113.39
-106.72
-99.88
-92
-82.59
-71.8
-60.21
-48.45
-36.74
-24.84
-12.15
1.75
16.73
31.94
45.94
57.27
64.87
68.52
68.87
67.11
64.6
62.36
60.85
59.9
58.98
57.46
55.01
51.63
47.7
43.68
39.93
36.51
33.15
29.45
25.07
19.92
14.12
7.88
1.22
-6.17
-14.82
-25.25
-37.61
-51.44
-65.67
-78.76
-89.05
-95.08
-95.85
-91.1
-81.23
-67.26
-50.65
-33.07
-16.12
-1.21
10.75
19.29
24.47
26.78
27.06
26.49
26.4
28.07
32.51
40.06
50.29
61.94
73.31
82.6
88.53
90.6
89.14
85.01
79.29
72.85
66.28
59.82
53.46
47.12
40.82
34.74
29.28
25
22.41
21.76
22.91
25.23
27.79
29.6
29.97
28.75
26.43
24.02
22.64
23.12
25.67
29.77
34.3
37.97
39.82
39.45
37.23
34.02
30.88
28.69
27.99
28.86
31.08
34.31
38.23
42.65
47.42
52.48
57.6
62.36
66.07
67.89
66.98
62.87
55.54
45.48
33.65
21.27
9.67
0.04
-6.94
-11.38
-14.29
-17.38
-22.49
-30.88
-42.66
-56.67
-70.83
-82.99
-91.6
-96.2
-97.19
-95.46
-91.82
-86.92
-81.29
-75.7
-71.18
-68.75
-68.8
-70.75
-72.76
-72.34
-67.26
-56.36
-40.05
-19.98
1.56
22.57
41.92
59.37
75.39
90.89
107.03
125.18
146.79
172.9
203.28
235.73
265.88
287.97
296.4
287.52
260.7
218.36
164.85
105.09
43.64
-15.66
-69.45
-114.87
-149.81
-173.51
-186.98
-192.81
-194.23
-193.72
-191.78
-186.73
-175.63
-156.05
-127.95
-94.51
-61.42
-34.89
-19.1
-14.59
-18.24
-25.02
-30.33
-31.71
-29.01
-23.31
-15.4
-5.27
7.35
21.94
36.51
48.11
54.19
54.09
49.53
43.77
39.97
39.66
42.33
46.1
49.11
50.56
50.95
51.36
52.59
54.57
56.5
57.46
57.03
55.47
53.41
51.38
49.46
47.2
43.87
38.74
31.17
20.81
7.65
-7.85
-24.72
-41.57
-56.73
-68.51
-75.53
-76.92
-72.64
-63.66
-51.98
-40.17
-30.61
-24.75
-22.72
-23.51
-25.71
-28.19
-30.44
-32.35
-33.87
-34.77
-34.7
-33.52
-31.43
-28.92
-26.41
-23.98
-21.3
-17.88
-13.3
-7.37
-0.11
8.36
17.84
28.02
38.43
48.35
56.85
62.88
65.44
63.77
57.65
47.65
35.09
21.8
9.56
-0.35
-7.49
-12.21
-15.34
-17.73
-19.95
-22.09
-23.95
-25.11
-25.19
-24.05
-21.83
-18.91
-15.7
-12.55
-9.74
-7.68
-7
-8.39
-12.1
-17.4
-22.59
-25.59
-24.91
-20.55
-14.04
-7.65
-3.18
-1.05
-0.32
0.54
2.6
5.88
9.52
12.45
14.2
15.11
15.99
17.55
19.88
22.51
24.73
26.18
27.13
28.39
30.81
34.83
40.21
46.19
51.84
56.48
59.81
61.84
62.75
62.63
61.4
58.61
53.42
44.76
31.83
14.75
-5.16
-25.44
-43.45
-57.28
-66.36
-71.39
-73.44
-73.25
-70.82
-65.83
-58.34
-49.18
-39.76
-31.47
-25.05
-20.46
-17.23
-14.95
-13.58
-13.34
-14.37
-16.56
-19.42
-22.36
-24.83
-26.44
-26.9
-26.05
-23.88
-20.61
-16.7
-12.69
-9.03
-5.84
-2.85
0.44
4.52
9.56
15.34
21.17
26.07
28.9
28.6
24.47
16.39
5.02
-8.33
-21.96
-34.2
-43.84
-50.34
-53.87
-55.08
-54.88
-54.12
-53.38
-52.77
-51.99
-50.4
-47.34
-42.36
-35.48
-27.16
-18.1
-8.94
-0.01
8.76
17.55
26.45
35.17
43.09
49.52
53.95
56.34
56.9
55.93
53.49
49.33
43.14
34.88
25.06
14.77
5.32
-2.09
-6.58
-7.53
-4.45
3.14
15.47
32.05
51.25
70.13
84.93
91.99
89.03
76
55.31
31.12
8.01
-10.41
-22.47
-28.35
-29.29
-26.47
-20.31
-10.64
2.67
18.8
35.82
51.23
62.96
70.19
73.53
74.48
74.46
74.15
73.36
71.6
68.8
65.72
63.74
64.04
66.73
70.45
72.77
71.29
64.8
54.03
41.27
29.39
20.26
13.82
8.06
-0.01
-12.95
-31.85
-55.98
-83.22
-110.9
-136.34
-157.24
-171.79
-178.93
-178.67
-172.37
-162.54
-152.09
-143.29
-137.03
-132.69
-129.02
-125.08
-120.99
-117.88
-117.08
-119.25
-123.93
-129.78
-135.22
-139.02
-140.5
-139.3
-135.16
-127.89
-117.59
-104.87
-90.79
-76.36
-61.97
-47.13
-30.78
-12.19
8.31
28.98
47.15
60.25
66.74
66.55
60.7
50.55
36.96
20.14
-0.02
-23.06
-47.48
-70.74
-89.93
-102.66
-107.46
-103.86
-91.78
-71.06
-41.57
-3.87
39.82
85.12
125.83
155.47
169.22
165.67
147.55
121.02
93.81
72.67
61.24
59.06
62.14
64.87
62.39
52.38
35.54
14.67
-7.01
-27.18
-44.88
-59.71
-70.96
-77.07
-76.17
-67.14
-50.66
-29.2
-6.37
14.53
31.62
44.99
56.28
67.76
81.13
96.83
114.06
131.26
146.83
159.62
168.91
174.07
174.36
169.09
158.13
142.61
124.95
108.34
95.52
87.77
84.6
84.32
85.12
85.87
86.47
87.58
90.32
95.8
104.67
116.48
128.97
138.04
138.69
127.07
102.51
68.31
30.43
-4.95
-34.05
-56.54
-74.6
-90.84
-106.3
-120.15
-130.43
-135.34
-133.7
-124.57
-106.68
-78.61
-40.15
6.4
55.61
100.29
133.92
153.05
158.28
153.4
143.25
131.57
119.76
107.18
92.2
73.4
50.03
21.99
-10.39
-46.17
-83.4
-118.73
-147.75
-166.15
-171.28
-163.51
-146.3
-125.02
-104.84
-88.88
-77.31
-68.01
-57.97
-44.97
-28.48
-9.64
9.52
26.98
41.33
51.81
58.21
60.66
59.55
55.66
50.04
43.83
37.78
31.9
25.53
17.72
7.88
-3.71
-15.88
-27.06
-36.01
-42.42
-47.11
-51.6
-57.42
-65.33
-74.84
-84.33
-91.75
-95.57
-95.6
-93.21
-90.72
-90.44
-93.49
-99.36
-106.09
-111.25
-113.01
-110.8
-105.36
-98.28
-91.27
-85.68
-82.23
-81.09
-81.95
-84.04
-86.07
-86.31
-82.82
-74
-59.28
-39.67
-17.76
2.81
18.4
26.57
26.8
20.7
11.17
1.4
-6.23
-10.65
-11.79
-10.03
-5.54
1.79
12.04
24.68
38.43
51.47
62.15
69.72
74.68
78.42
82.46
87.58
93.38
98.45
100.99
99.61
94.01
85.14
74.96
65.67
59.11
56.22
56.85
60.12
64.86
70.32
76.37
83.44
92.03
102.04
112.44
121.2
125.81
124.01
114.48
97.27
73.86
46.75
18.82
-7.36
-30.14
-49.02
-64.59
-78.14
-91.17
-104.53
-118.04
-130.27
-138.96
-142.24
-139.91
-134.36
-130.22
-132.46
-143.66
-162.08
-181.5
-193.29
-189.71
-166.98
-126.35
-73.2
-14.74
42.2
92.28
131.55
157.27
167.78
163.05
145.29
118.62
88.13
58.21
31.27
7.3
-15.55
-39.86
-67.5
-98.8
-132.15
-164.39
-191.52
-209.73
-216.26
-209.96
-191.52
-163.18
-128.12
-89.79
-51.14
-14.21
20.07
51.51
80.17
105.66
126.99
142.78
151.99
154.64
152.16
146.93
141.41
137.22
134.73
133.43
132.5
131.49
130.43
129.5
128.76
127.83
126
122.42
116.38
107.57
96.23
83.26
70.11
58.38
49.16
42.51
37.14
30.74
20.74
5.33
-15.76
-40.93
-66.87
-89.28
-103.81
-107.16
-98.05
-77.73
-49.74
-19.04
9.29
31.18
44.27
48.14
44.06
34.65
23.23
13.21
7.27
6.77
11.41
19.42
28.02
34.06
34.67
27.88
13.02
-9
-35.55
-62.7
-86.06
-101.84
-107.91
-104.25
-92.71
-76.3
-58.12
-40.47
-24.44
-10.03
3.3
15.83
27.01
35.46
39.61
38.63
33.27
25.85
19.5
16.97
19.58
26.82
36.8
47.25
56.33
63.02
66.85
67.34
63.95
56.19
44.27
29.45
13.88
-0.13
-10.92
-18.02
-21.7
-22.19
-19.03
-11.32
0.9
15.31
26.73
28.78
16.8
-9.05
-42.81
-74.63
-95.07
-99.57
-90.02
-73.35
-57.19
-45.97
-39.44
-34.25
-27.15
-17.37
-6.93
1.03
4.12
1.74
-5.42
-16.61
-31.8
-51.46
-75.47
-102.5
-130
-155.34
-176.94
-195.01
-211.29
-227.78
-245.55
-263.91
-280.62
-292.36
-296.01
-289.84
-274.35
-252.61
-229.2
-208.98
-195.37
-189.25
-188.74
-189.93
-188.43
-181
-166.51
-146.02
-121.89
-96.51
-71.36
-46.96
-23.43
-1.29
18.38
34.26
45.73
53.38
59.21
65.94
75.91
90.24
108.74
130.48
154.39
179.38
203.96
225.62
240.84
245.84
238.09
217.55
186.8
150.14
112.04
75.95
43.87
16.92
-3.65
-15.79
-17.13
-6.42
14.74
41.22
65.54
80.54
82.56
73.07
58.1
45.1
39.39
41.93
49.53
57.43
62.22
63.56
63.72
65.55
70.35
77.22
83.84
88.13
89.65
89.98
91.89
97.72
107.94
120.75
132.71
140.34
141.71
137.17
128.95
119.88
112.26
107.14
104.58
104.25
105.87
109.17
113.63
118.16
121.21
121.29
117.37
109.27
97.62
83.58
68.6
54.11
41.2
30.47
21.89
14.94
8.92
3.27
-2.23
-7.45
-12.17
-16.12
-19.17
-21.34
-22.77
-23.79
-24.9
-26.72
-29.78
-34.31
-40.11
-46.56
-52.83
-58.15
-62.03
-64.41
-65.59
-65.98
-66.08
-66.18
-66.21
-65.82
-64.5
-61.96
-58.3
-53.93
-49.41
-45.26
-41.84
-39.41
-38.1
-37.8
-37.97
-37.6
-35.43
-30.55
-22.86
-13.47
-4.34
2.33
4.96
3.09
-2.55
-10.34
-18.29
-24.6
-28.05
-28.35
-26.24
-22.94
-19.61
-16.9
-14.75
-12.82
-10.87
-9.12
-8.07
-8.07
-8.89
-9.79
-9.91
-8.79
-6.61
-4.05
-1.74
0
1.26
2.17
2.56
1.93
-0.33
-4.41
-9.76
-15.05
-18.58
-18.89
-15.31
-8.27
0.85
10.11
17.7
22.5
24.28
23.62
21.47
18.76
16.24
14.67
14.92
18.13
25.28
36.59
51.07
66.58
80.47
90.67
96.39
98.25
97.64
95.78
93.02
88.86
82.49
73.69
63.26
52.9
44.51
39.43
37.88
39.04
41.51
43.86
45
44.22
40.83
34.02
23.13
8.25
-9.16
-26.3
-39.98
-47.96
-50.01
-47.95
-44.53
-41.96
-41.02
-41.18
-41.68
-42.62
-45.04
-50.22
-58.59
-69.13
-79.72
-88.22
-93.42
-95.4
-95.11
-93.66
-91.88
-90.22
-88.96
-88.35
-88.44
-88.77
-88.32
-85.83
-80.33
-71.64
-60.51
-48.31
-36.41
-25.67
-16.18
-7.47
0.98
9.28
16.9
22.98
26.83
28.38
28.4
28.04
28.32
29.61
31.58
33.46
34.75
35.46
36.15
37.39
39.34
41.52
43.1
43.35
42.03
39.49
36.31
33.03
29.91
26.99
24.28
21.82
19.67
17.73
15.78
13.53
10.85
7.94
5.31
3.58
3.16
4.08
5.93
8.08
9.85
10.73
10.42
8.87
6.25
2.86
-0.81
-4.21
-6.85
-8.42
-8.9
-8.53
-7.69
-6.78
-6.08
-5.84
-6.35
-7.92
-10.81
-14.98
-19.85
-24.35
-27.23
-27.63
-25.48
-21.6
-17.36
-13.96
-11.92
-10.9
-9.94
-8.17
-5.26
-1.75
1.18
2.33
1.01
-2.43
-6.73
-10.18
-11.4
-9.86
-6.11
-1.43
2.66
4.86
4.15
