0
0
0
0
0
0
0
0
0
0
0
0.01
0.01
0
-0.03
-0.05
-0.05
0
0.13
0.36
0.66
1.01
1.37
1.72
2.06
2.4
2.79
3.24
3.8
4.42
5.06
5.66
6.2
6.68
7.15
7.68
8.31
9.14
10.09
11.04
11.88
12.56
13.14
13.76
14.65
15.96
17.91
20.32
22.9
25.38
27.58
29.57
31.68
34.32
37.81
42.54
48.15
54.1
59.83
64.97
69.58
74.14
79.34
85.71
93.76
103
112.62
121.73
129.77
136.75
143.3
150.75
157.77
166.64
177.95
191.79
206.97
220.57
228.25
225.36
208.53
176.87
132.76
80.05
23.07
-34.94
-92.44
-149.16
-205.23
-260.37
-313.74
-363.87
-409.83
-450.9
-486.48
-515.7
-537.17
-549.14
-549.85
-538.22
-514.01
-478.43
-433.58
-382.1
-326.6
-269.36
-212.09
-156.04
-102.27
-51.61
-5.07
36.5
72.43
102.44
126.69
145.68
160.11
170.69
178.06
182.6
184.6
184.3
181.96
177.94
172.64
166.47
159.78
152.82
145.73
138.59
131.42
124.29
117.24
110.37
103.72
97.36
91.31
85.61
80.25
75.25
70.61
66.35
62.47
58.98
55.86
53.12
50.77
48.81
47.21
45.98
45.08
44.45
44.03
43.67
43.25
42.58
41.48
39.79
37.36
34.12
30.03
25.17
19.59
13.48
7.09
0.68
-5.49
-11.15
-16.09
-20.16
-23.24
-25.3
-26.38
-26.56
-25.96
-24.72
-23.01
-20.96
-18.69
-16.29
-13.83
-11.33
-8.84
-6.37
-3.92
-1.49
0.95
3.41
5.93
8.52
11.22
14.01
16.86
19.78
22.78
25.86
29.06
32.4
35.93
39.72
43.67
47.74
51.91
56.16
60.5
64.95
69.56
74.39
79.53
84.86
90.29
95.79
101.33
106.91
112.53
118.18
123.89
129.71
135.34
140.54
145.11
148.79
151.31
152.3
151.27
147.52
142.4
136.4
129.83
122.89
115.74
108.5
101.28
94.18
87.32
80.88
74.71
68.75
62.99
57.44
52.14
47.15
42.52
38.32
34.64
31.29
28.16
25.16
22.27
19.47
16.81
14.34
12.1
10.15
8.38
6.73
5.17
3.69
2.35
1.2
0.28
-0.4
-0.88
-1.32
-1.88
-2.65
-3.67
-4.9
-6.24
-7.6
-9
-10.53
-12.4
-14.84
-17.95
-21.68
-25.81
-30.03
-34.07
-37.85
-41.56
-45.58
-50.32
-56.03
-62.62
-69.71
-76.75
-83.32
-89.35
-95.23
-101.71
-109.55
-119.23
-130.72
-143.48
-156.75
-169.87
-182.61
-195.2
-208.26
-222.61
-239.16
-258.77
-281.93
-308.22
-335.82
-361.4
-380.74
-390.07
-387.47
-373.62
-351.5
-325.16
-298.19
-272.76
-249.55
-228.39
-209.12
-191.96
-177.23
-164.91
-154.28
-143.99
-132.57
-119.06
-103.31
-85.99
-68.25
-51.2
-35.55
-21.41
-8.43
3.91
15.95
27.57
38.25
47.25
54.04
58.56
61.23
62.8
63.97
65.12
66.18
66.78
66.6
65.59
64.06
62.53
61.48
61.02
60.92
60.67
59.76
57.88
55.04
51.55
47.83
44.28
41.08
38.21
35.48
32.67
29.6
26.21
22.55
18.75
14.96
11.3
7.78
4.38
0.93
-2.75
-6.89
-11.58
-16.68
-21.74
-26.03
-28.74
-29.2
-27.11
-22.64
-16.37
-9.08
-1.53
5.75
12.52
18.75
24.53
29.81
34.5
38.47
41.63
43.98
45.62
46.71
47.28
47.41
47.13
46.56
45.87
45.21
44.66
44.19
43.62
42.73
41.41
39.58
37.31
34.74
32.03
29.34
26.78
24.36
22
19.53
16.82
13.83
10.66
7.39
4.1
0.78
-2.56
-5.94
-9.36
-12.91
-16.8
-21.27
-26.5
-32.33
-38.18
-43.17
-46.4
-47.26
-45.61
-41.67
-35.94
-28.95
-21.17
-13
-4.85
3
10.28
16.83
22.6
27.56
31.72
35.1
37.74
39.69
41.06
41.97
42.52
42.78
42.9
42.97
43.09
43.26
43.38
43.29
42.78
41.77
40.21
38.09
35.4
32.14
28.34
24.14
19.84
15.75
12.18
9.21
6.66
4.19
1.44
-1.71
-5.18
-8.69
-11.99
-14.94
-17.72
-20.7
-24.31
-28.91
-34.58
-41.07
-47.8
-53.93
-58.49
-60.59
-59.64
-55.47
-48.46
-39.33
-29.05
-18.56
-8.6
0.41
8.32
15.19
21.21
26.52
31.17
35.09
38.16
40.3
41.51
41.96
41.85
41.45
40.87
40.22
39.52
38.81
38.15
37.6
37.17
36.78
36.26
35.44
34.19
32.49
30.36
27.9
25.2
22.37
19.53
16.77
14.07
11.33
8.4
5.18
1.75
-1.66
-4.73
-7.29
-9.39
-11.32
-13.52
-16.3
-19.86
-24.21
-29.27
-34.87
-40.7
-46.24
-50.8
-53.66
-54.22
-52.19
-47.71
-41.25
-33.53
-25.25
-17
-9.1
-1.67
5.37
12.04
18.3
23.91
28.58
32.09
34.38
35.72
36.42
36.89
37.36
37.93
38.56
39.13
39.55
39.78
39.84
39.73
39.43
38.86
37.88
36.41
34.47
32.2
29.79
27.43
25.18
22.97
20.71
18.3
15.74
13.08
10.39
7.61
4.7
1.57
-1.76
-5.18
-8.53
-11.66
-14.58
-17.34
-20.14
-23.23
-26.82
-31
-35.61
-40.21
-44.09
-46.46
-46.66
-44.4
-39.85
-33.53
-26.22
-18.61
-11.26
-4.47
1.7
7.26
12.28
16.74
20.61
23.79
26.29
28.15
29.48
30.4
30.95
31.18
31.12
30.95
30.9
31.19
31.84
32.69
33.38
33.59
33.08
31.85
30.08
28.04
25.99
24.07
22.3
20.59
18.77
16.74
14.51
12.23
10.08
8.19
6.53
4.93
3.17
1.1
-1.28
-3.9
-6.68
-9.6
-12.72
-16.11
-19.84
-23.92
-28.37
-33.19
-38.29
-43.35
-47.82
-50.96
-52.02
-50.55
-46.49
-40.26
-32.61
-24.41
-16.5
-9.38
-3.25
2
6.63
10.9
14.89
18.53
21.66
24.15
26.02
27.38
28.42
29.27
29.99
30.59
31.1
31.52
31.91
32.21
32.34
32.17
31.61
30.59
29.19
27.54
25.82
24.19
22.74
21.49
20.39
19.31
18.11
16.66
14.9
12.85
10.55
8.12
5.62
3.12
0.62
-1.95
-4.68
-7.62
-10.72
-13.88
-16.89
-19.67
-22.22
-24.72
-27.43
-30.58
-34.21
-38.1
-41.74
-44.46
-45.58
-44.62
-41.42
-36.21
-29.56
-22.24
-15.01
-8.45
-2.88
1.7
5.46
8.64
11.44
13.95
16.16
18.04
19.6
20.85
21.86
22.65
23.27
23.74
24.09
24.36
24.62
24.95
25.38
25.87
26.28
26.43
26.15
25.3
23.94
22.22
20.38
18.64
17.08
15.62
14.11
12.42
10.54
8.6
6.8
5.27
4.04
2.99
1.86
0.38
-1.63
-4.26
-7.37
-10.7
-13.83
-16.47
-18.47
-19.97
-21.39
-23.23
-25.91
-29.53
-33.84
-38.18
-41.67
-43.49
-43.03
-40.07
-34.85
-27.94
-20.09
-12.08
-4.55
2.11
7.7
12.18
15.61
18.14
19.93
21.18
22.08
22.72
23.16
23.37
23.33
23.1
22.87
22.81
23.1
23.74
24.55
25.29
25.69
25.68
25.31
24.73
24.04
23.24
22.23
20.86
19.09
16.92
14.49
11.94
9.4
6.94
4.58
2.35
0.25
-1.7
-3.56
-5.44
-7.53
-9.93
-12.66
-15.56
-18.36
-20.78
-22.65
-24.07
-25.39
-27.08
-29.54
-32.89
-36.87
-40.81
-43.86
-45.22
-44.42
-41.44
-36.68
-30.81
-24.48
-18.23
-12.34
-6.9
-1.93
2.57
6.53
9.94
12.78
15.1
17.05
18.8
20.45
22.04
23.48
24.61
25.36
25.77
25.99
26.24
26.63
27.05
27.25
26.94
25.93
24.24
22.07
19.71
17.42
15.35
13.5
11.79
10.1
8.3
6.39
4.48
2.73
1.31
0.28
-0.46
-1.13
-2
-3.26
-4.97
-7.03
-9.27
-11.54
-13.71
-15.76
-17.79
-19.93
-22.42
-25.51
-29.34
-33.83
-38.56
-42.88
-45.95
-47.05
-45.74
-42.06
-36.48
-29.78
-22.81
-16.25
-10.5
-5.69
-1.73
1.56
4.32
6.65
8.64
10.32
11.81
13.2
14.63
16.12
17.64
19.07
20.3
21.3
22.09
22.85
23.72
24.75
25.78
26.49
26.56
25.77
24.17
22.03
19.73
17.58
15.68
13.92
12.12
10.16
8.05
5.94
4.03
2.39
0.99
-0.41
-2.06
-4.15
-6.65
-9.43
-12.19
-14.72
-16.95
-18.95
-20.9
-22.94
-25.16
-27.61
-30.26
-33.09
-35.9
-38.36
-39.81
-39.59
-37.21
-32.59
-26.22
-18.95
-11.72
-5.24
0.14
4.45
7.86
10.61
12.88
14.77
16.4
17.83
19.12
20.27
21.29
22.12
22.73
23.11
23.23
23.07
22.62
21.92
21.07
20.18
19.3
18.47
17.64
16.69
15.6
14.34
12.95
11.48
9.98
8.47
6.93
5.35
3.61
1.65
-0.62
-3.13
-5.77
-8.4
-10.92
-13.27
-15.46
-17.53
-19.5
-21.46
-23.6
-26.2
-29.52
-33.62
-38.22
-42.65
-46.03
-47.47
-46.46
-42.91
-37.27
-30.29
-22.85
-15.69
-9.28
-3.81
0.78
4.61
7.82
10.52
12.78
14.72
16.49
18.24
20.01
21.7
23.13
24.09
24.51
24.45
24.13
23.74
23.4
23.13
22.83
22.41
21.77
20.89
19.73
18.31
16.7
14.94
13.12
11.29
9.48
7.73
6.06
4.5
3.05
1.62
0.11
-1.6
-3.59
-5.86
-8.36
-11.02
-13.82
-16.79
-20.01
-23.55
-27.49
-31.85
-36.49
-41.1
-45.19
-48.16
-49.48
-48.8
-46.11
-41.67
-35.98
-29.61
-23.06
-16.72
-10.82
-5.49
-0.75
3.38
6.95
10.04
12.78
15.31
17.71
20.04
22.23
24.18
25.78
27.02
27.94
28.63
29.1
29.29
29.11
28.49
27.48
26.2
24.81
23.39
21.95
20.44
18.79
16.97
14.95
12.77
10.46
8.11
5.85
3.78
1.99
0.38
-1.21
-3.05
-5.29
-7.95
-10.88
-13.82
-16.59
-19.09
-21.45
-23.88
-26.72
-30.17
-34.31
-38.92
-43.53
-47.47
-49.96
-50.34
-48.2
-43.61
-37.05
-29.33
-21.37
-13.87
-7.2
-1.26
4.2
9.43
14.36
18.65
21.92
23.96
24.92
25.23
25.37
25.62
25.97
26.24
26.27
26.02
25.62
25.25
25
24.81
24.5
23.94
23.1
22.03
20.82
19.52
18.15
16.6
14.83
12.81
10.6
8.31
6.01
3.75
1.5
-0.76
-3.11
-5.55
-8.04
-10.56
-13.11
-15.79
-18.74
-22.13
-26.11
-30.74
-35.85
-41.04
-45.66
-48.96
-50.24
-49.13
-45.66
-40.24
-33.49
-26.09
-18.53
-11.18
-4.19
2.35
8.35
13.74
18.42
22.3
25.32
27.48
28.86
29.64
30.05
30.32
30.63
30.98
31.27
31.37
31.18
30.69
30
29.17
28.24
27.17
25.91
24.42
22.73
20.86
18.87
16.79
14.65
12.49
10.32
8.14
5.92
3.55
0.95
-1.97
-5.2
-8.61
-12.07
-15.37
-18.37
-21.07
-23.57
-26.16
-29.1
-32.64
-36.82
-41.41
-45.95
-49.72
-51.99
-52.11
-49.74
-44.9
-38.05
-29.93
-21.41
-13.28
-6
0.29
5.73
10.56
14.92
18.82
22.12
24.69
26.5
27.7
28.51
29.11
29.6
29.98
30.23
30.4
30.6
30.94
31.44
31.95
32.26
32.14
31.48
30.27
28.63
26.73
24.68
22.57
20.41
18.22
16.02
13.81
11.59
9.36
7.06
4.6
1.93
-1
-4.16
-7.45
-10.79
-14.09
-17.28
-20.36
-23.37
-26.38
-29.56
-33.15
-37.34
-42.12
-47.15
-51.8
-55.13
-56.34
-54.92
-50.91
-44.86
-37.6
-30
-22.63
-15.74
-9.3
-3.13
2.83
8.55
13.85
18.53
22.46
25.66
28.23
30.31
31.97
33.2
33.96
34.22
34.08
33.71
33.33
33.07
32.99
32.94
32.65
31.95
30.71
29.04
27.11
25.17
23.31
21.54
19.69
17.63
15.31
12.79
10.23
7.77
5.48
3.36
1.3
-0.82
-3.12
-5.64
-8.39
-11.32
-14.32
-17.33
-20.29
-23.28
-26.43
-29.92
-33.86
-38.36
-43.34
-48.51
-53.4
-57.28
-59.36
-58.94
-55.76
-49.98
-42.29
-33.61
-24.78
-16.44
-8.86
-2.07
4.01
9.47
14.3
18.51
22.05
24.95
27.23
28.94
30.13
30.9
31.3
31.44
31.44
31.38
31.37
31.41
31.53
31.65
31.65
31.39
30.74
29.61
28
26.05
23.91
21.76
19.73
17.79
15.88
13.89
11.75
9.49
7.25
5.17
3.35
1.77
0.29
-1.29
-3.13
-5.32
-7.81
-10.48
-13.23
-16
-18.85
-21.94
-25.37
-29.22
-33.42
-37.77
-41.87
-45.19
-47.14
-47.16
-44.95
-40.57
-34.49
-27.43
-20.14
-13.16
-6.75
-0.99
4.18
8.79
12.82
16.26
19.08
21.31
23
24.23
25.07
25.66
26.06
26.35
26.56
26.7
26.77
26.76
26.7
26.55
26.28
25.83
25.16
24.31
23.31
22.27
21.17
20.04
18.82
17.47
15.94
14.21
12.3
10.25
8.15
6.07
4.04
1.98
-0.25
-2.72
-5.48
-8.4
-11.34
-14.13
-16.74
-19.25
-21.89
-24.93
-28.62
-33.14
-38.38
-43.95
-49.15
-53.1
-54.97
-54.23
-50.85
-45.24
-38.15
-30.34
-22.5
-15.06
-8.26
-2.2
3.14
7.81
11.92
15.54
18.7
21.39
23.57
25.2
26.31
26.99
27.36
27.53
27.58
27.57
27.5
27.36
27.11
26.75
26.29
25.74
25.14
24.44
23.6
22.59
21.39
20.05
18.67
17.29
15.89
14.39
12.72
10.86
8.92
7.07
5.42
3.94
2.46
0.69
-1.6
-4.5
-7.93
-11.64
-15.37
-18.96
-22.4
-25.82
-29.5
-33.65
-38.4
-43.62
-48.87
-53.51
-56.72
-57.8
-56.31
-52.24
-46.04
-38.46
-30.36
-22.5
-15.35
-9.06
-3.56
1.31
5.68
9.63
13.14
16.17
18.72
20.79
22.45
23.73
24.68
25.35
25.8
26.12
26.44
26.85
27.39
28.02
28.6
28.95
28.9
28.37
27.39
26.07
24.56
22.97
21.35
19.67
17.87
15.97
14
12.03
10.09
8.21
6.32
4.34
2.22
-0.07
-2.52
-5.06
-7.63
-10.16
-12.61
-14.92
-17.09
-19.22
-21.49
-24.16
-27.46
-31.44
-35.85
-40.09
-43.35
-44.8
-43.85
-40.37
-34.76
-27.79
-20.33
-13.15
-6.74
-1.26
3.35
7.26
10.62
13.53
16.01
18.07
19.71
20.99
21.94
22.57
22.84
22.73
22.28
21.64
21.02
20.66
20.73
21.22
21.98
22.75
23.27
23.35
22.95
22.13
21.05
19.87
18.64
17.34
15.81
13.94
11.67
9.16
6.64
4.36
2.44
0.74
-0.97
-3.02
-5.51
-8.38
-11.31
-13.99
-16.22
-18.09
-19.87
-21.99
-24.82
-28.48
-32.9
-37.7
-42.38
-46.31
-48.9
-49.66
-48.32
-44.93
-39.8
-33.49
-26.69
-20.01
-13.9
-8.5
-3.77
0.47
4.37
7.92
11.1
13.78
15.94
17.62
18.99
20.22
21.41
22.58
23.7
24.69
25.45
25.98
26.3
26.47
26.52
26.4
26.05
25.35
24.26
22.86
21.35
19.94
18.8
17.9
17.07
16.03
14.56
12.56
10.13
7.52
4.97
2.66
0.59
-1.41
-3.53
-5.95
-8.69
-11.67
-14.67
-17.51
-20.08
-22.38
-24.57
-26.89
-29.63
-32.97
-36.91
-41.2
-45.27
-48.34
-49.64
-48.64
-45.21
-39.66
-32.66
-25
-17.45
-10.5
-4.45
0.71
5.11
8.98
12.52
15.88
19.11
22.13
24.79
26.89
28.32
29.12
29.45
29.58
29.73
30.03
30.47
30.96
31.3
31.37
31.02
30.2
28.88
27.11
25.06
22.91
20.87
19.07
17.56
16.3
15.15
14.06
12.95
11.83
10.69
9.51
8.2
6.62
4.65
2.14
-0.95
-4.56
-8.5
-12.53
-16.36
-19.83
-22.97
-26.02
-29.3
-33.12
-37.5
-42.17
-46.5
-49.73
-51.12
-50.22
-46.99
-41.78
-35.21
-28.02
-20.83
-14.07
-7.97
-2.58
2.07
6.03
9.34
12.1
14.42
16.4
18.14
19.66
20.93
21.92
22.58
22.9
22.94
22.76
22.48
22.22
22.03
21.91
21.79
21.63
21.35
20.92
20.34
19.57
18.59
17.37
15.94
14.4
12.84
11.3
9.72
8.01
6
3.68
1.08
-1.69
-4.51
-7.33
-10.18
-13.04
-15.89
-18.66
-21.23
-23.58
-25.76
-27.96
-30.5
-33.67
-37.58
-42.01
-46.41
-49.89
-51.54
-50.7
-47.15
-41.26
-33.77
-25.65
-17.69
-10.43
-4.02
1.57
6.48
10.8
14.55
17.73
20.31
22.35
23.88
24.96
25.59
25.79
25.63
25.26
24.9
24.76
24.97
25.46
26.04
26.45
26.48
26.07
25.29
24.28
23.2
22.06
20.79
19.27
17.39
15.18
12.78
10.36
8.05
5.89
3.76
1.53
-0.96
-3.7
-6.61
-9.51
-12.23
-14.7
-16.98
-19.25
-21.77
-24.75
-28.34
-32.51
-37.07
-41.63
-45.64
-48.46
-49.49
-48.27
-44.66
-38.89
-31.55
-23.49
-15.53
-8.32
-2.13
3.05
7.46
11.27
14.54
17.22
19.23
20.6
21.52
22.22
22.86
23.52
24.12
24.59
24.92
25.25
25.72
26.33
26.97
27.34
27.23
26.54
25.36
23.88
22.3
20.74
19.18
17.61
16.02
14.41
12.82
11.28
9.84
8.47
7.18
5.87
4.42
2.62
0.3
-2.61
-6.06
-9.83
-13.63
-17.26
-20.63
-23.87
-27.22
-30.99
-35.33
-40.12
-44.95
-49.16
-52
-52.89
-51.56
-48.08
-42.84
-36.42
-29.42
-22.36
-15.67
-9.6
-4.26
0.36
4.37
7.91
11.14
14.13
16.88
19.34
21.4
22.97
23.99
24.47
24.58
24.55
24.62
24.94
25.52
26.17
26.63
26.69
26.26
25.37
24.2
22.87
21.47
20.05
18.57
17.07
15.52
13.94
12.32
10.67
8.96
7.17
5.26
3.16
0.82
-1.79
-4.62
-7.62
-10.71
-13.83
-16.94
-20
-22.97
-25.84
-28.7
-31.71
-35.08
-38.92
-43.01
-46.89
-49.78
-50.91
-49.65
-45.87
-39.93
-32.56
-24.74
-17.26
-10.67
-5.09
-0.35
3.85
7.72
11.26
14.39
16.98
19.04
20.68
22.08
23.35
24.5
25.43
26.07
26.43
26.61
26.77
27.02
27.34
27.54
27.38
26.66
25.33
23.59
21.75
20.13
18.87
17.86
16.83
15.47
13.67
11.47
9.1
6.8
4.69
2.77
0.89
-1.06
-3.22
-5.64
-8.35
-11.32
-14.44
-17.58
-20.6
-23.49
-26.35
-29.44
-32.98
-37.05
-41.42
-45.59
-48.84
-50.46
-49.96
-47.18
-42.37
-36.04
-28.85
-21.47
-14.41
-8.06
-2.58
1.97
5.7
8.71
11.19
13.28
15.09
16.67
18.03
19.17
20.09
20.84
21.45
21.96
22.43
22.88
23.36
23.86
24.38
24.82
25.04
24.92
24.41
23.61
22.69
21.85
21.16
20.58
19.92
18.97
17.63
15.86
13.78
11.5
9.17
6.85
4.51
2.12
-0.41
-3.13
-6.07
-9.19
-12.43
-15.66
-18.77
-21.74
-24.64
-27.63
-30.91
-34.66
-38.84
-43.19
-47.13
-49.96
-51.01
-49.83
-46.38
-40.93
-34.04
-26.39
-18.58
-11.12
-4.3
1.72
6.91
11.29
14.92
17.84
20.09
21.73
22.91
23.75
24.39
24.9
25.26
25.44
25.45
25.35
25.24
25.15
25.06
24.89
24.56
24.01
23.26
22.34
21.27
20.04
18.65
17.16
15.62
14.1
12.58
10.99
9.27
7.38
5.37
3.32
1.28
-0.82
-3.08
-5.55
-8.24
-11.02
-13.75
-16.3
-18.72
-21.15
-23.87
-27.13
-31.03
-35.53
-40.3
-44.77
-48.19
-49.84
-49.19
-46.09
-40.82
-34.02
-26.5
-19.02
-12.1
-5.97
-0.65
4.01
8.18
11.93
15.29
18.16
20.53
22.35
23.68
24.61
25.22
25.57
25.7
25.72
25.73
25.87
26.18
26.58
26.9
26.96
26.63
25.92
24.87
23.6
22.17
20.64
19.03
17.4
15.78
14.15
12.54
10.94
9.35
7.84
6.45
5.17
3.9
2.46
0.65
-1.65
-4.45
-7.66
-11.08
-14.47
-17.66
-20.58
-23.33
-26.12
-29.26
-33
-37.41
-42.29
-47.13
-51.11
-53.37
-53.18
-50.26
-44.81
-37.58
-29.52
-21.53
-14.2
-7.71
-1.96
3.23
7.96
12.2
15.88
18.98
21.55
23.73
25.6
27.17
28.32
28.93
28.99
28.6
28.04
27.6
27.49
27.75
28.2
28.56
28.5
27.83
26.57
25
23.43
22.09
21.04
20.13
19.15
17.92
16.43
14.71
12.91
11.12
9.36
7.58
5.65
3.48
0.95
-1.96
-5.22
-8.69
-12.15
-15.39
-18.25
-20.74
-23.05
-25.5
-28.42
-32.08
-36.48
-41.42
-46.39
-50.76
-53.82
-54.94
-53.75
-50.18
-44.54
-37.45
-29.67
-21.97
-14.88
-8.71
-3.47
0.96
4.76
8.08
10.99
13.52
15.71
17.58
19.1
20.29
21.12
21.63
21.89
22.02
22.2
22.56
23.21
24.16
25.3
26.44
27.31
27.65
27.31
26.3
24.8
23.09
21.45
20
18.68
17.3
15.7
13.78
11.66
9.52
7.56
5.82
4.2
2.51
0.58
-1.67
-4.18
-6.81
-9.43
-12.01
-14.56
-17.2
-20.08
-23.34
-27.07
-31.28
-35.78
-40.17
-43.86
-46.13
-46.36
-44.17
-39.59
-33.07
-25.35
-17.31
-9.72
-3.1
2.32
6.61
9.98
12.64
14.71
16.23
17.22
17.69
17.74
17.52
17.19
16.88
16.69
16.62
16.7
16.93
17.31
17.8
18.38
18.99
19.58
20.08
20.38
20.33
19.83
18.83
17.39
15.65
13.8
11.99
10.35
8.83
7.37
5.83
4.12
2.14
-0.12
-2.62
-5.32
-8.12
-10.98
-13.81
-16.54
-19.15
-21.7
-24.41
-27.61
-31.55
-36.23
-41.22
-45.71
-48.66
-49.26
-47.13
-42.53
-36.19
-29.02
-21.82
-15.1
-9.06
-3.73
0.96
5.11
8.81
12.11
15.1
17.82
20.27
22.37
24.06
25.27
26.09
26.65
27.19
27.89
28.83
29.92
30.91
31.53
31.54
30.87
29.59
27.87
25.85
23.63
21.27
18.81
16.33
13.86
11.48
9.19
7.06
5.08
3.25
1.51
-0.27
-2.22
-4.52
-7.19
-10.16
-13.26
-16.31
-19.22
-21.98
-24.74
-27.72
-31.15
-35.18
-39.77
-44.66
-49.34
-53.13
-55.3
-55.26
-52.67
-47.63
-40.62
-32.39
-23.83
-15.7
-8.52
-2.43
2.66
7.01
10.86
14.32
17.39
19.97
22.02
23.54
24.61
25.34
25.84
26.19
26.42
26.62
26.83
27.1
27.4
27.68
27.81
27.7
27.3
26.57
25.55
24.27
22.79
21.15
19.38
17.46
15.35
13
10.41
7.67
4.92
2.32
-0.06
-2.23
-4.3
-6.39
-8.56
-10.84
-13.13
-15.42
-17.66
-19.96
-22.54
-25.66
-29.57
-34.33
-39.77
-45.35
-50.27
-53.66
-54.81
-53.4
-49.59
-43.91
-37.05
-29.68
-22.29
-15.19
-8.53
-2.43
2.99
7.68
11.61
14.88
17.63
20.04
22.2
24.04
25.44
26.29
26.64
26.64
26.59
26.67
26.91
27.17
27.26
27.04
26.55
25.94
25.37
24.89
24.41
23.78
22.88
21.66
20.18
18.54
16.85
15.13
13.43
11.7
9.89
7.93
5.74
3.3
0.61
-2.2
-4.99
-7.62
-10.01
-12.2
-14.34
-16.67
-19.49
-23.08
-27.61
-33.06
-39.08
-44.97
-49.81
-52.67
-52.88
-50.24
-45.14
-38.36
-30.79
-23.19
-15.94
-9.17
-2.84
3.07
8.5
13.28
17.25
20.35
22.58
24.08
24.96
25.39
25.51
25.45
25.34
25.31
25.42
25.72
26.17
26.67
27.1
27.32
27.22
26.75
25.92
24.8
23.48
22.05
20.51
18.85
17.06
15.09
13.04
10.97
8.97
7.07
5.23
3.36
1.33
-0.93
-3.44
-6.09
-8.83
-11.57
-14.31
-17.1
-20.05
-23.29
-26.97
-31.22
-36.03
-41.3
-46.65
-51.43
-54.85
-56.07
-54.57
-50.25
-43.59
-35.46
-26.86
-18.61
-11.15
-4.59
1.23
6.53
11.43
15.94
19.95
23.37
26.11
28.19
29.66
30.6
31.11
31.3
31.27
31.07
30.76
30.37
29.92
29.42
28.92
28.4
27.83
27.13
26.21
25.02
23.59
22
20.35
18.65
16.83
14.78
12.47
10.02
7.67
5.64
4.05
2.72
1.34
-0.44
-2.77
-5.61
-8.73
-11.86
-14.88
-17.77
-20.64
-23.64
-26.93
-30.7
-35.06
-40.01
-45.28
-50.3
-54.22
-56.16
-55.49
-52.03
-46.15
-38.61
-30.3
-22.03
-14.31
-7.35
-1.19
4.23
9
13.12
16.67
19.69
22.22
24.29
25.94
27.2
28.14
28.86
29.43
29.92
30.33
30.62
30.8
30.83
30.72
30.41
29.86
29.01
27.85
26.5
25.07
23.66
22.28
20.86
19.25
17.34
15.09
12.55
9.87
7.22
4.76
2.52
0.43
-1.69
-4.06
-6.82
-9.93
-13.18
-16.29
-19.05
-21.4
-23.51
-25.72
-28.42
-31.9
-36.26
-41.31
-46.57
-51.31
-54.64
-55.79
-54.23
-49.94
-43.37
-35.38
-26.91
-18.77
-11.4
-4.91
0.74
5.67
9.9
13.45
16.33
18.69
20.68
22.44
24.02
25.31
26.23
26.72
26.92
27.09
27.45
28.1
28.95
29.8
30.34
30.41
29.95
29.04
27.84
26.54
25.22
23.89
22.49
20.89
19.1
17.13
15.11
13.12
11.18
9.19
7.04
4.64
2
-0.75
-3.51
-6.18
-8.81
-11.5
-14.31
-17.23
-20.22
-23.31
-26.61
-30.36
-34.74
-39.68
-44.76
-49.13
-51.84
-52.02
-49.27
-43.78
-36.24
-27.61
-18.82
-10.55
-3.19
3.09
8.25
12.31
15.33
17.48
18.92
19.9
20.57
21.09
21.49
21.85
22.26
22.8
23.52
24.41
25.42
26.48
27.5
28.4
29.08
29.39
29.15
28.28
26.77
24.79
22.54
20.27
18.12
16.13
14.25
12.39
10.48
8.51
6.53
4.6
2.73
0.85
-1.2
-3.55
-6.29
-9.31
-12.47
-15.58
-18.56
-21.48
-24.49
-27.69
-31.19
-35.01
-39.17
-43.62
-48.17
-52.38
-55.51
-56.7
-55.27
-51.01
-44.29
-35.96
-27.05
-18.5
-10.85
-4.32
1.21
5.94
10.02
13.51
16.4
18.71
20.56
22.14
23.63
25.11
26.44
27.39
27.78
27.65
27.23
26.9
26.92
27.28
27.76
27.97
27.62
26.67
25.24
23.62
22.08
20.76
19.62
18.52
17.24
15.57
13.44
10.93
8.27
5.72
3.48
1.54
-0.25
-2.13
-4.29
-6.82
-9.68
-12.73
-15.83
-18.87
-21.83
-24.83
-28.07
-31.77
-36.04
-40.84
-45.84
-50.41
-53.81
-55.33
-54.46
-51.04
-45.34
-37.91
-29.55
-21.05
-13.03
-5.91
0.2
5.36
9.74
13.49
16.74
19.53
21.87
23.75
25.19
26.2
26.83
27.18
27.32
27.38
27.48
27.67
27.95
28.23
28.41
28.32
27.84
26.92
25.6
23.94
22.1
20.22
18.41
16.7
15.07
13.39
11.52
9.43
7.14
4.79
2.55
0.5
-1.4
-3.34
-5.56
-8.23
-11.31
-14.59
-17.74
-20.55
-22.99
-25.27
-27.71
-30.65
-34.33
-38.76
-43.75
-48.84
-53.32
-56.38
-57.23
-55.39
-50.85
-44.08
-35.92
-27.27
-18.9
-11.28
-4.61
1.1
5.9
9.9
13.16
15.78
17.85
19.48
20.8
21.93
22.91
23.74
24.36
24.73
24.86
24.86
24.87
25.01
25.28
25.54
25.61
25.34
24.73
23.86
22.85
21.77
20.56
19.14
17.44
15.49
13.39
11.3
9.37
7.6
5.99
4.42
2.79
1.01
-1.03
-3.4
-6.15
-9.28
-12.72
-16.29
-19.83
-23.21
-26.49
-29.84
-33.6
-38.03
-43.07
-48.36
-53.11
-56.45
-57.58
-56.12
-52.1
-46.03
-38.67
-30.82
-23.24
-16.36
-10.37
-5.17
-0.53
3.79
7.89
11.73
15.22
18.27
20.86
23.03
24.83
26.24
27.24
27.91
28.37
28.85
29.5
30.35
31.29
32.06
32.47
32.42
31.96
31.2
30.27
29.23
28.06
26.7
25.02
22.99
20.55
17.76
14.73
11.6
8.41
5.12
1.59
-2.31
-6.55
-10.93
-15.13
-18.87
-22.03
-24.73
-27.28
-30.04
-33.34
-37.31
-41.86
-46.67
-51.21
-54.8
-56.73
-56.41
-53.55
-48.22
-40.91
-32.36
-23.36
-14.63
-6.64
0.44
6.59
11.91
16.49
20.36
23.54
26.02
27.86
29.19
30.12
30.78
31.26
31.63
31.97
32.33
32.75
33.21
33.6
33.82
33.71
33.21
32.28
30.92
29.18
27.16
25
22.82
20.73
18.76
16.92
15.19
13.51
11.84
10.09
8.11
5.71
2.72
-0.89
-5.03
-9.48
-13.95
-18.19
-22.05
-25.49
-28.64
-31.76
-35.2
-39.27
-44.1
-49.47
-54.77
-59.16
-61.76
-61.93
-59.45
-54.56
-47.83
-39.98
-31.74
-23.63
-15.99
-8.9
-2.34
3.77
9.44
14.64
19.24
23.12
26.21
28.54
30.15
31.14
31.6
31.66
31.44
31.12
30.84
30.71
30.77
31.01
31.31
31.5
31.42
30.96
30.09
28.92
27.59
26.27
24.97
23.62
22.06
20.21
18.12
15.96
13.89
11.93
9.92
7.58
4.74
1.35
-2.45
-6.46
-10.5
-14.53
-18.61
-22.79
-27.13
-31.71
-36.64
-42.03
-47.89
-53.91
-59.44
-63.52
-65.22
-63.94
-59.65
-52.89
-44.6
-35.8
-27.31
-19.62
-12.88
-7.05
-1.96
2.53
6.55
10.13
13.31
16.11
18.53
20.62
22.39
23.89
25.17
26.31
27.39
28.49
29.62
30.71
31.6
32.11
32.09
31.5
30.42
28.99
27.41
25.81
24.33
23.06
22.03
21.18
20.36
19.37
18.01
16.17
13.85
11.12
8.14
4.99
1.73
-1.58
-4.84
-8.02
-11.08
-14.19
-17.61
-21.7
-26.81
-33
-40.03
-47.16
-53.37
-57.49
-58.63
-56.41
-51.07
-43.43
-34.52
-25.39
-16.68
-8.72
-1.52
5.02
10.98
16.42
21.29
25.55
29.11
31.86
33.78
34.85
35.18
34.97
34.49
33.99
33.69
33.65
33.81
34.01
34.04
33.75
33
31.82
30.28
28.59
26.88
25.22
23.58
21.84
19.93
17.81
15.58
13.42
11.42
9.59
7.75
5.66
3.08
-0.03
-3.54
-7.23
-10.93
-14.55
-18.14
-21.87
-25.94
-30.56
-35.87
-41.85
-48.28
-54.6
-60.02
-63.64
-64.73
-62.9
-58.25
-51.31
-42.87
-33.79
-24.83
-16.58
-9.35
-3.27
1.79
6.06
9.76
13.05
15.94
18.33
20.12
21.33
22.07
22.58
23
23.4
23.74
23.97
24.13
24.31
24.62
25.04
25.42
25.48
24.96
23.76
21.94
19.76
17.51
15.46
13.79
12.5
11.48
10.46
9.22
7.54
5.4
2.94
0.41
-1.94
-4
-5.77
-7.38
-9.03
-10.94
-13.35
-16.45
-20.3
-24.79
-29.52
-33.8
-36.82
-37.82
-36.32
-32.3
-26.24
-18.96
-11.36
-4.2
2.1
7.4
11.77
15.3
18.02
19.96
21.14
21.75
22.02
22.25
22.6
23.06
23.51
23.73
23.64
23.29
22.87
22.61
22.66
23.02
23.5
23.79
23.55
22.58
20.85
18.54
15.92
13.24
10.66
8.18
5.74
3.23
0.66
-1.97
-4.59
-7.18
-9.74
-12.31
-14.95
-17.75
-20.86
-24.48
-28.76
-33.81
-39.48
-45.34
-50.67
-54.61
-56.33
-55.35
-51.63
-45.63
-38.15
-30.07
-22.17
-14.89
-8.41
-2.67
2.47
7.09
11.22
14.82
17.81
20.19
22
23.35
24.36
25.11
25.73
26.28
26.84
27.53
28.39
29.41
30.45
31.31
31.71
31.46
30.53
29.02
27.12
24.99
22.76
20.46
18.06
15.51
12.75
9.78
6.61
3.32
0.01
-3.22
-6.31
-9.26
-12.12
-15.05
-18.2
-21.81
-26.05
-31.05
-36.74
-42.71
-48.23
-52.35
-54.18
-53.23
-49.6
-43.89
-36.98
-29.69
-22.52
-15.65
-8.99
-2.48
3.84
9.81
15.18
19.75
23.4
26.17
28.12
29.4
30.11
30.37
30.25
29.85
29.28
28.64
28.03
27.49
26.99
26.42
25.67
24.63
23.24
21.49
19.42
17.11
14.64
12.13
9.74
7.56
5.66
3.93
2.26
0.41
-1.8
-4.43
-7.37
-10.4
-13.28
-15.83
-18.09
-20.23
-22.63
-25.62
-29.49
-34.31
-39.74
-45.17
-49.7
-52.48
-52.86
-50.64
-46.1
-39.83
-32.56
-24.93
-17.39
-10.18
-3.45
2.73
8.34
13.41
18.01
22.13
25.77
28.78
30.97
32.19
32.41
31.79
30.63
29.29
28.07
27.15
26.5
26.02
25.53
24.88
24.02
22.88
21.47
19.77
17.81
15.63
13.37
11.16
9.06
7.05
4.98
2.66
-0.01
-3.03
-6.21
-9.33
-12.21
-14.89
-17.53
-20.43
-23.84
-27.89
-32.45
-37.22
-41.64
-45.06
-46.84
-46.45
-43.67
-38.69
-32.07
-24.58
-17
-9.89
-3.49
2.15
7.16
11.62
15.52
18.8
21.4
23.34
24.74
25.8
26.67
27.43
28.09
28.55
28.8
28.86
28.84
28.87
28.97
29.07
29.01
28.62
27.77
26.39
24.45
21.99
19.09
15.94
12.82
9.97
7.55
5.48
3.56
1.48
-0.92
-3.61
-6.41
-9.08
-11.5
-13.68
-15.83
-18.2
-21.06
-24.63
-28.98
-34.01
-39.33
-44.38
-48.4
-50.71
-50.85
-48.7
-44.52
-38.86
-32.38
-25.67
-19.16
-12.98
-7.14
-1.53
3.88
9.01
13.69
17.75
21.1
23.74
25.81
27.43
28.67
29.51
29.95
30
29.75
29.36
28.96
28.64
28.35
27.98
27.39
26.44
25.1
23.36
21.29
18.93
16.38
13.7
11
8.39
5.96
3.77
1.77
-0.16
-2.19
-4.47
-7.04
-9.88
-12.85
-15.79
-18.65
-21.45
-24.31
-27.42
-30.89
-34.66
-38.5
-41.94
-44.4
-45.29
-44.24
-41.17
-36.37
-30.37
-23.82
-17.33
-11.3
-5.9
-1.14
3.11
6.97
10.56
13.84
16.71
19.04
20.72
21.8
22.42
22.86
23.31
23.89
24.58
25.31
25.96
26.48
26.88
27.13
27.17
26.84
26.01
24.65
22.84
20.77
18.67
16.75
15.07
13.6
12.17
10.58
8.59
6.07
3.02
-0.43
-3.98
-7.36
-10.32
-12.79
-14.85
-16.8
-19.06
-21.98
-25.8
-30.43
-35.43
-40.1
-43.61
-45.29
-44.76
-42.07
-37.56
-31.86
-25.61
-19.42
-13.69
-8.62
-4.27
-0.5
2.81
5.77
8.39
10.66
12.53
14
15.11
15.97
16.67
17.26
17.81
18.35
18.94
19.63
20.37
21.08
21.63
21.88
21.74
21.22
20.34
19.16
17.78
16.26
14.66
13.01
11.33
9.66
8.02
6.41
4.8
3.13
1.29
-0.78
-3.06
-5.45
-7.79
-9.97
-12.01
-14.09
-16.49
-19.53
-23.36
-27.97
-33.11
-38.25
-42.72
-45.76
-46.75
-45.29
-41.42
-35.57
-28.5
-21.07
-14
-7.72
-2.33
2.29
6.38
10.05
13.37
16.29
18.75
20.75
22.35
23.63
24.64
25.4
25.94
26.32
26.63
26.93
27.28
27.64
27.97
28.18
28.22
28.02
27.49
26.61
25.36
23.83
22.16
20.42
18.63
16.72
14.6
12.27
9.82
7.41
5.11
2.84
0.37
-2.52
-5.95
-9.78
-13.75
-17.52
-20.92
-23.91
-26.63
-29.31
-32.16
-35.36
-38.98
-42.88
-46.66
-49.71
-51.3
-50.82
-48.01
-43.05
-36.5
-29.13
-21.65
-14.59
-8.28
-2.82
1.8
5.65
8.9
11.66
14.11
16.36
18.47
20.4
22.02
23.17
23.71
23.65
23.15
22.51
22.05
21.95
22.2
22.63
22.94
22.93
22.55
21.85
20.98
20.03
19.02
17.93
16.73
15.46
14.19
13
11.94
10.94
9.89
8.61
7.03
5.17
3.12
1.01
-1.11
-3.28
-5.64
-8.22
-10.98
-13.74
-16.29
-18.61
-20.86
-23.43
-26.62
-30.49
-34.64
-38.35
-40.76
-41.19
-39.38
-35.53
-30.2
-24.07
-17.8
-11.84
-6.47
-1.75
2.31
5.77
8.66
11.02
12.91
14.33
15.38
16.08
16.5
16.71
16.77
16.77
16.79
16.93
17.22
17.71
18.32
18.94
19.4
19.49
19.07
18.06
16.57
14.73
12.78
10.87
9.09
7.46
5.9
4.35
2.66
0.72
-1.58
-4.27
-7.22
-10.26
-13.14
-15.78
-18.17
-20.47
-22.83
-25.41
-28.31
-31.6
-35.32
-39.38
-43.55
-47.33
-50.02
-50.92
-49.56
-45.87
-40.19
-33.18
-25.54
-17.84
-10.44
-3.56
2.66
8.09
12.57
16.06
18.57
20.27
21.36
22.03
22.43
22.73
23.06
23.5
24.11
24.78
25.36
25.62
25.4
24.67
23.54
22.21
20.83
19.44
17.94
16.16
14.04
11.68
9.32
7.25
5.65
4.48
3.48
2.32
0.7
-1.5
-4.22
-7.32
-10.58
-13.85
-16.99
-19.94
-22.72
-25.43
-28.22
-31.25
-34.55
-38.04
-41.43
-44.26
-46
-46.15
-44.4
-40.72
-35.42
-29.02
-22.14
-15.32
-8.89
-2.96
2.52
7.6
12.27
16.43
19.93
22.64
24.53
25.69
26.3
26.59
26.7
26.77
26.76
26.59
26.23
25.69
25.06
24.44
23.9
23.38
22.77
21.91
20.75
19.29
17.62
15.82
13.93
11.96
9.81
7.41
4.72
1.72
-1.49
-4.79
-8.04
-11.15
-14.08
-16.85
-19.54
-22.19
-24.89
-27.75
-30.93
-34.5
-38.37
-42.16
-45.23
-46.84
-46.41
-43.75
-39.14
-33.21
-26.66
-20.09
-13.8
-7.81
-2.09
3.43
8.65
13.46
17.68
21.2
24
26.08
27.48
28.28
28.57
28.47
28.14
27.72
27.31
26.98
26.74
26.6
26.47
26.3
25.96
25.32
24.28
22.73
20.68
18.18
15.4
12.51
9.69
6.96
4.22
1.33
-1.88
-5.42
-9.17
-12.88
-16.3
-19.3
-21.89
-24.28
-26.75
-29.63
-33.11
-37.27
-41.84
-46.27
-49.82
-51.69
-51.28
-48.37
-43.2
-36.32
-28.45
-20.28
-12.33
-4.99
1.52
7.06
11.62
15.21
17.98
20.04
21.53
22.55
23.17
23.46
23.48
23.28
22.87
22.28
21.52
20.61
19.6
18.51
17.4
16.2
14.83
13.16
11.12
8.74
6.12
3.5
1.04
-1.12
-3.03
-4.81
-6.67
-8.77
-11.15
-13.73
-16.28
-18.56
-20.39
-21.84
-23.21
-24.98
-27.57
-31.13
-35.41
-39.71
-43.13
-44.8
-44.17
-41.06
-35.74
-28.76
-20.82
-12.66
-4.9
1.99
7.79
12.45
16.08
18.82
20.82
22.2
23.05
23.52
23.74
23.87
24.04
24.29
24.66
25.11
25.63
26.16
26.64
26.93
26.86
26.3
25.18
23.61
21.74
19.75
17.71
15.55
13.07
10.04
6.39
2.21
-2.22
-6.58
-10.73
-14.71
-18.77
-23.21
-28.23
-33.74
-39.41
-44.71
-49.06
-51.93
-52.88
-51.66
-48.25
-42.87
-36.04
-28.38
-20.53
-12.99
-5.97
0.5
6.53
12.25
17.64
22.57
26.78
30.01
32.1
33.05
33.08
32.51
31.69
30.81
29.92
28.92
27.68
26.2
24.46
22.48
20.25
17.71
14.84
11.72
8.62
5.79
3.4
1.4
-0.43
-2.43
-4.84
-7.71
-10.91
-14.2
-17.3
-20.01
-22.25
-24.12
-25.97
-28.24
-31.37
-35.51
-40.32
-44.99
-48.37
-49.43
-47.55
-42.78
-35.8
-27.6
-19.19
-11.26
-4.08
2.42
8.49
14.29
19.86
25.04
29.62
33.41
36.37
38.54
40.02
40.91
41.22
41
40.33
39.43
38.5
37.83
37.54
37.6
37.81
37.8
37.27
35.96
33.86
31.16
28.17
25.18
22.33
19.61
16.9
14.07
11.05
7.88
4.62
1.32
-2
-5.34
-8.67
-12
-15.31
-18.7
-22.35
-26.47
-31.22
-36.57
-42.16
-47.36
-51.33
-53.2
-52.42
-48.86
-42.92
-35.42
-27.33
-19.47
-12.35
-6.12
-0.71
4
8.02
11.34
13.92
15.87
17.39
18.81
20.34
22.06
23.87
25.58
27.04
28.2
29.15
29.95
30.61
31.02
30.95
30.22
28.78
26.75
24.36
21.89
19.49
17.14
14.63
11.75
8.36
4.5
0.4
-3.63
-7.33
-10.6
-13.57
-16.49
-19.71
-23.5
-28.01
-33.12
-38.49
-43.49
-47.35
-49.3
-48.79
-45.71
-40.4
-33.58
-26.11
-18.77
-12.07
-6.2
-1.12
3.29
7.14
10.45
13.21
15.36
16.91
17.88
18.34
18.35
18.05
17.57
17.06
16.72
16.63
16.82
17.19
17.58
17.81
17.72
17.25
16.41
15.25
13.87
12.36
10.76
9.08
7.27
5.25
2.96
0.36
-2.49
-5.53
-8.63
-11.75
-14.85
-17.99
-21.27
-24.91
-29.1
-33.92
-39.2
-44.4
-48.72
-51.22
-51.2
-48.39
-43.07
-35.96
-27.93
-19.72
-11.75
-4.25
2.83
9.51
15.79
21.57
26.7
31.08
34.63
37.39
39.44
40.88
41.81
42.23
42.15
41.52
40.44
39.02
37.42
35.78
34.09
32.27
30.2
27.79
25.01
21.94
18.7
15.42
12.22
9.16
6.2
3.21
0.07
-3.26
-6.69
-9.97
-12.86
-15.23
-17.15
-18.89
-20.85
-23.37
-26.68
-30.78
-35.39
-40.03
-43.99
-46.51
-46.9
-44.79
-40.22
-33.7
-26.05
-18.16
-10.71
-4.03
1.87
7.23
12.26
17.04
21.44
25.26
28.39
30.83
32.81
34.53
36.12
37.53
38.57
39.12
39.17
38.95
38.73
38.71
38.82
38.76
38.11
36.55
34.04
30.8
27.22
23.69
20.43
17.52
14.85
12.3
9.76
7.21
4.62
2.02
-0.59
-3.22
-5.92
-8.77
-11.85
-15.27
-19.1
-23.45
-28.32
-33.58
-38.93
-43.81
-47.54
-49.48
-49.25
-46.83
-42.61
-37.26
-31.48
-25.87
-20.72
-16.08
-11.85
-7.91
-4.23
-0.85
2.13
4.62
6.6
8.15
9.39
10.47
11.48
12.49
13.48
14.44
15.35
16.19
16.95
17.53
17.83
17.72
17.12
16.07
14.7
13.19
11.65
10.13
8.52
6.65
4.4
1.72
-1.23
-4.23
-7.01
-9.44
-11.56
-13.6
-15.9
-18.76
-22.34
-26.48
-30.73
-34.39
-36.64
-36.84
-34.69
-30.34
-24.35
-17.5
-10.49
-3.82
2.26
7.7
12.48
16.58
19.94
22.59
24.61
26.1
27.13
27.71
27.76
27.27
26.29
24.95
23.43
21.86
20.26
18.58
16.69
14.53
12.05
9.34
6.49
3.67
1
-1.46
-3.7
-5.78
-7.79
-9.83
-11.92
-14.03
-16.09
-18
-19.73
-21.32
-22.9
-24.7
-26.98
-29.88
-33.36
-37.17
-40.82
-43.71
-45.19
-44.75
-42.07
-37.17
-30.42
-22.43
-14.01
-5.91
1.25
7.21
11.96
15.7
18.6
20.77
22.22
22.87
22.8
22.19
21.34
20.51
19.82
19.27
18.73
18.11
17.4
16.71
16.09
15.6
15.2
14.75
14.14
13.24
11.92
10.08
7.73
4.96
2.07
-0.67
-3.09
-5.21
-7.27
-9.56
-12.33
-15.62
-19.4
-23.55
-27.96
-32.5
-36.85
-40.52
-42.81
-43.14
-41.18
-37.07
-31.31
-24.62
-17.67
-10.89
-4.49
1.55
7.26
12.67
17.68
22.14
25.85
28.67
30.59
31.7
32.18
32.24
32.01
31.6
31.04
30.41
29.74
29.11
28.44
27.57
26.28
24.42
21.98
19.14
16.25
13.57
11.24
9.15
7.04
4.64
1.79
-1.48
-4.98
-8.4
-11.56
-14.36
-16.95
-19.54
-22.44
-25.84
-29.73
-33.92
-37.88
-40.95
-42.43
-41.84
-39.06
-34.39
-28.43
-21.87
-15.29
-9
-3.11
2.39
7.51
12.16
16.2
19.49
22.01
23.82
25.06
25.83
26.25
26.35
26.18
25.82
25.37
24.95
24.63
24.37
24.03
23.42
22.4
20.91
19.04
16.96
14.81
12.68
10.51
8.2
5.63
2.79
-0.23
-3.27
-6.19
-8.96
-11.66
-14.45
-17.56
-21.2
-25.47
-30.33
-35.54
-40.68
-45.18
-48.38
-49.69
-48.7
-45.36
-39.98
-33.21
-25.86
-18.67
-12.14
-6.42
-1.46
2.97
7
10.67
13.9
16.62
18.84
20.65
22.2
23.61
24.94
26.22
27.41
28.5
29.43
30.18
30.65
30.78
30.46
29.61
28.2
26.24
23.85
21.21
18.53
15.95
13.57
11.37
9.23
7.09
4.86
2.49
-0.05
-2.78
-5.79
-9.17
-13.08
-17.64
-22.86
-28.57
-34.3
-39.32
-42.82
-44.1
-42.81
-39.05
-33.3
-26.28
-18.74
-11.26
-4.26
2.1
7.76
12.69
16.87
20.24
22.8
24.57
25.66
26.23
26.4
26.26
25.87
25.24
24.42
23.52
22.66
21.94
21.36
20.81
20.1
19.06
17.62
15.83
13.87
11.92
10.1
8.41
6.72
4.87
2.7
0.2
-2.55
-5.43
-8.35
-11.3
-14.32
-17.51
-20.89
-24.42
-28.04
-31.63
-35
-37.87
-39.8
-40.26
-38.86
-35.41
-30.23
-23.96
-17.41
-11.3
-6.03
-1.73
1.75
4.57
6.9
8.8
10.3
11.38
12
12.25
12.27
12.34
12.77
13.78
15.3
17.02
18.53
19.44
19.65
19.3
18.66
17.92
17.1
16.08
14.68
12.89
10.78
8.53
6.26
4.01
1.76
-0.52
-2.77
-4.94
-7.02
-9.09
-11.38
-14.16
-17.53
-21.43
-25.52
-29.23
-31.95
-33.17
-32.59
-30.18
-26.22
-21.14
-15.47
-9.74
-4.37
0.3
4.13
7.04
9.13
10.49
11.25
11.54
11.49
11.29
11.09
11.01
11.03
11.08
11.04
10.8
10.38
9.87
9.37
8.87
8.29
7.41
6.09
4.31
2.19
-0.06
-2.27
-4.35
-6.32
-8.26
-10.19
-12.08
-13.79
-15.31
-16.71
-18.24
-20.27
-23.06
-26.69
-30.91
-35.18
-38.84
-41.19
-41.69
-40.12
-36.54
-31.35
-25.18
-18.74
-12.62
-7.2
-2.55
1.5
5.2
8.72
12.05
15.09
17.7
19.78
21.31
22.28
22.66
22.44
21.63
20.4
19.03
17.9
17.3
17.33
17.82
18.47
18.92
18.89
18.26
17.04
15.34
13.28
10.94
8.33
5.43
2.24
-1.17
-4.69
-8.15
-11.46
-14.64
-17.88
-21.44
-25.59
-30.41
-35.72
-41.02
-45.66
-48.92
-50.19
-49.23
-46.11
-41.25
-35.21
-28.6
-21.82
-15.15
-8.72
-2.62
3.05
8.2
12.76
16.73
20.12
22.96
25.23
26.93
28.1
28.85
29.34
29.7
30.05
30.44
30.88
31.35
31.76
32
31.91
31.34
30.16
28.35
26.01
23.28
20.34
17.36
14.48
11.77
9.23
6.77
4.25
1.58
-1.26
-4.17
-7.06
-9.86
-12.66
-15.7
-19.24
-23.51
-28.58
-34.24
-39.97
-45.06
-48.69
-50.22
-49.32
-46.08
-40.95
-34.57
-27.6
-20.55
-13.82
-7.63
-2.1
2.69
6.79
10.27
13.2
15.64
17.6
19.12
20.31
21.31
22.26
23.21
24.11
24.87
25.45
25.84
26.07
26.16
26.03
25.6
24.82
23.74
22.49
21.14
19.72
18.15
16.37
14.38
12.26
10.09
7.86
5.45
2.7
-0.43
-3.79
-7.08
-10.03
-12.56
-14.81
-17.13
-19.86
-23.19
-27.11
-31.43
-35.85
-40.05
-43.65
-46.25
-47.41
-46.76
-44.08
-39.46
-33.27
-26.12
-18.63
-11.33
-4.47
1.88
7.71
13.06
17.82
21.85
24.97
27.19
28.62
29.48
30.09
30.69
31.44
32.26
33.01
33.5
33.6
33.34
32.83
32.21
31.51
30.67
29.47
27.75
25.42
22.55
19.33
15.99
12.77
9.78
7.06
4.56
2.17
-0.26
-2.84
-5.56
-8.32
-10.91
-13.22
-15.16
-16.81
-18.34
-19.96
-21.97
-24.55
-27.87
-31.89
-36.36
-40.82
-44.58
-46.98
-47.42
-45.66
-41.78
-36.19
-29.49
-22.34
-15.3
-8.76
-2.9
2.31
6.93
11.04
14.6
17.49
19.6
20.9
21.54
21.75
21.84
21.98
22.24
22.58
22.89
23.09
23.13
23.02
22.78
22.46
22.06
21.6
21.05
20.31
19.34
18.1
16.62
14.96
13.25
11.55
9.93
8.39
6.86
5.29
3.56
1.65
-0.41
-2.57
-4.73
-6.94
-9.28
-11.92
-14.97
-18.46
-22.31
-26.41
-30.6
-34.66
-38.29
-40.95
-42.12
-41.31
-38.34
-33.43
-27.12
-20.13
-13.08
-6.42
-0.29
5.24
10.21
14.56
18.18
20.95
22.79
23.79
24.12
24.09
23.95
23.88
23.92
23.95
23.85
23.52
23.01
22.43
21.99
21.71
21.54
21.31
20.78
19.86
18.54
16.95
15.2
13.39
11.51
9.49
7.31
4.96
2.56
0.2
-2.07
-4.29
-6.55
-8.91
-11.33
-13.66
-15.71
-17.41
-18.87
-20.41
-22.47
-25.43
-29.36
-34.06
-38.92
-43.19
-46.07
-46.97
-45.59
-42.06
-36.83
-30.59
-24.05
-17.78
-12.15
-7.23
-2.94
0.88
4.38
7.65
10.7
13.5
16.02
18.2
20.05
21.55
22.7
23.56
24.15
24.59
24.94
25.28
25.62
25.88
25.95
25.69
25.05
24.06
22.87
21.62
20.36
19.09
17.66
15.98
13.97
11.73
9.37
7.09
4.97
3.02
1.15
-0.79
-2.89
-5.21
-7.66
-10.14
-12.53
-14.8
-17.04
-19.45
-22.31
-25.76
-29.81
-34.23
-38.53
-42.14
-44.44
-44.96
-43.48
-40.06
-35.01
-28.89
-22.28
-15.69
-9.49
-3.81
1.27
5.76
9.63
12.89
15.53
17.6
19.19
20.33
21.07
21.39
21.34
21.04
20.67
20.42
20.41
20.64
20.99
21.33
21.54
21.56
21.41
21.12
20.69
20.11
19.35
18.33
17.04
15.48
13.71
11.82
9.85
7.82
5.7
3.47
1.1
-1.33
-3.74
-6.08
-8.34
-10.56
-12.77
-15.05
-17.45
-20.07
-23.06
-26.57
-30.64
-35.14
-39.7
-43.74
-46.57
-47.57
-46.31
-42.75
-37.21
-30.38
-23.03
-15.9
-9.45
-3.89
0.79
4.69
7.84
10.28
12.04
13.27
14.17
14.94
15.69
16.38
16.9
17.13
17.03
16.72
16.42
16.31
16.53
17.02
17.57
17.88
17.71
16.97
15.77
14.39
13.11
12.11
11.39
10.78
10.07
9.11
7.93
6.62
5.29
3.93
2.42
0.62
-1.54
-4.03
-6.69
-9.36
-11.97
-14.53
-17.14
-19.92
-22.96
-26.34
-30.08
-34.12
-38.25
-42.03
-44.85
-46.04
-45.15
-42.06
-37.07
-30.82
-24.05
-17.37
-11.11
-5.42
-0.29
4.27
8.21
11.47
14.1
16.16
17.74
18.92
19.72
20.16
20.3
20.29
20.31
20.53
20.98
21.62
22.36
23.07
23.66
24.03
24.06
23.69
22.9
21.81
20.54
19.22
17.83
16.35
14.69
12.87
10.98
9.09
7.17
5.13
2.81
0.15
-2.73
-5.6
-8.31
-10.82
-13.29
-15.9
-18.84
-22.16
-25.87
-29.93
-34.32
-38.89
-43.27
-46.81
-48.74
-48.42
-45.58
-40.51
-33.98
-26.9
-20.07
-13.88
-8.39
-3.44
1.16
5.45
9.31
12.57
15.13
17
18.38
19.47
20.42
21.3
22.07
22.66
23.06
23.32
23.54
23.81
24.11
24.38
24.48
24.23
23.48
22.14
20.27
18
15.57
13.19
10.98
8.88
6.66
4.1
1.08
-2.31
-5.8
-9.07
-11.93
-14.39
-16.67
-19.09
-21.95
-25.51
-29.84
-34.94
-40.57
-46.34
-51.62
-55.65
-57.65
-57.06
-53.72
-47.96
-40.52
-32.34
-24.29
-16.93
-10.41
-4.64
0.62
5.51
10.02
14.05
17.45
20.21
22.39
24.16
25.67
27.02
28.26
29.36
30.3
31.02
31.56
31.99
32.44
32.98
33.52
33.85
33.62
32.6
30.69
28.08
25.08
22.03
19.1
16.28
13.43
10.33
6.91
3.16
-0.75
-4.68
-8.48
-12.09
-15.57
-19.04
-22.72
-26.8
-31.4
-36.46
-41.74
-46.75
-50.82
-53.21
-53.29
-50.74
-45.64
-38.6
-30.5
-22.25
-14.6
-7.9
-2.16
2.84
7.32
11.42
15.13
18.34
20.94
22.86
24.11
24.78
25.03
25.01
24.88
24.76
24.65
24.57
24.46
24.29
24.02
23.6
22.96
21.99
20.57
18.62
16.12
13.11
9.71
6.06
2.28
-1.47
-5.11
-8.57
-11.9
-15.19
-18.64
-22.43
-26.74
-31.73
-37.32
-43.21
-48.77
-53.12
-55.36
-54.86
-51.46
-45.55
-37.89
-29.39
-20.82
-12.62
-5
2.02
8.43
14.18
19.15
23.19
26.26
28.37
29.63
30.24
30.36
30.12
29.58
28.78
27.8
26.79
25.9
25.25
24.81
24.37
23.66
22.4
20.49
17.99
15.06
11.87
8.51
4.98
1.26
-2.56
-6.33
-9.82
-12.92
-15.74
-18.66
-22.16
-26.68
-32.27
-38.53
-44.63
-49.55
-52.37
-52.5
-49.84
-44.73
-37.83
-29.93
-21.71
-13.73
-6.27
0.61
6.93
12.76
18.1
22.88
27.03
30.53
33.41
35.77
37.63
38.95
39.68
39.76
39.29
38.46
37.6
36.94
36.59
36.43
36.17
35.5
34.15
32.06
29.34
26.25
23.06
19.96
17.03
14.19
11.38
8.46
5.4
2.18
-1.19
-4.68
-8.26
-11.85
-15.37
-18.74
-22.04
-25.44
-29.27
-33.8
-39.17
-45.3
-51.65
-57.46
-61.73
-63.56
-62.38
-58.1
-51.22
-42.57
-33.16
-23.8
-14.96
-6.77
0.8
7.8
14.16
19.71
24.31
27.9
30.64
32.71
34.34
35.64
36.65
37.36
37.72
37.79
37.63
37.34
36.98
36.61
36.21
35.66
34.85
33.65
32.05
30.08
27.91
25.65
23.38
21.11
18.78
16.37
13.83
11.15
8.35
5.42
2.39
-0.71
-3.86
-7.04
-10.21
-13.35
-16.44
-19.55
-22.87
-26.66
-31.18
-36.45
-42.1
-47.33
-51.15
-52.65
-51.31
-47.16
-40.72
-32.8
-24.19
-15.56
-7.33
0.23
6.97
12.76
17.53
21.24
23.89
25.61
26.59
27.05
27.22
27.28
27.38
27.55
27.83
28.2
28.65
29.13
29.58
29.91
30
29.78
29.16
28.15
26.74
24.97
22.87
20.55
18.12
15.73
13.45
11.3
9.16
6.83
4.05
0.67
-3.33
-7.68
-12.01
-15.89
-19.09
-21.73
-24.21
-27.11
-30.88
-35.67
-41.2
-46.86
-51.85
-55.41
-56.98
-56.25
-53.16
-47.93
-40.94
-32.78
-24.06
-15.4
-7.25
0.12
6.64
12.4
17.51
22.06
25.98
29.18
31.57
33.17
34.08
34.5
34.59
34.47
34.19
33.79
33.34
32.9
32.45
31.94
31.24
30.23
28.91
27.4
25.8
24.23
22.7
21.16
19.61
18
16.36
14.63
12.74
10.59
8.14
5.43
2.55
-0.41
-3.46
-6.65
-10.03
-13.59
-17.24
-20.83
-24.36
-27.91
-31.74
-36.1
-41.07
-46.46
-51.69
-55.98
-58.49
-58.6
-56.06
-51.05
-44.18
-36.22
-27.97
-19.98
-12.59
-5.83
0.36
6.03
11.17
15.66
19.39
22.31
24.48
26.02
27.1
27.85
28.38
28.77
29.1
29.48
30.05
30.89
31.97
33.13
34.07
34.42
33.95
32.6
30.59
28.29
26.01
23.91
21.9
19.74
17.27
14.52
11.65
8.92
6.48
4.31
2.26
0.09
-2.33
-5
-7.81
-10.63
-13.36
-16
-18.65
-21.44
-24.53
-28.03
-32.04
-36.51
-41.3
-46.05
-50.22
-53.15
-54.21
-53.04
-49.61
-44.29
-37.7
-30.5
-23.34
-16.6
-10.54
-5.22
-0.63
3.37
6.93
10.17
13.18
15.93
18.39
20.52
22.32
23.82
25.06
26.02
26.71
27.17
27.47
27.7
27.89
28.01
27.98
27.68
27.09
26.23
25.18
24.07
23.03
22.08
21.22
20.37
19.37
18.09
16.43
14.4
12.04
9.46
6.69
3.73
0.59
-2.71
-6.08
-9.41
-12.57
-15.53
-18.3
-21.04
-23.95
-27.2
-30.96
-35.12
-39.41
-43.28
-46.09
-47.25
-46.38
-43.44
-38.68
-32.59
-25.73
-18.7
-11.99
-5.96
-0.85
3.29
6.51
9
10.95
12.56
13.99
15.29
16.46
17.45
18.23
18.81
19.34
19.92
20.66
21.51
22.34
22.98
23.31
23.36
23.19
22.92
22.51
21.83
20.77
19.26
17.46
15.63
14.07
12.89
12.07
11.36
10.45
9.09
7.1
4.51
1.43
-1.91
-5.35
-8.76
-12.18
-15.71
-19.46
-23.49
-27.76
-32.16
-36.52
-40.6
-44.07
-46.48
-47.33
-46.19
-42.9
-37.66
-31.05
-23.84
-16.79
-10.46
-5.08
-0.63
3.08
6.22
8.96
11.39
13.51
15.41
17.1
18.62
19.96
21.1
21.99
22.62
23.02
23.27
23.49
23.74
23.98
24.09
23.95
23.44
22.54
21.32
19.89
18.33
16.62
14.75
12.66
10.36
7.99
5.66
3.52
1.59
-0.15
-1.85
-3.63
-5.55
-7.61
-9.76
-11.99
-14.29
-16.77
-19.54
-22.73
-26.41
-30.56
-35.06
-39.63
-43.88
-47.25
-49.18
-49.24
-47.19
-43.2
-37.74
-31.47
-25
-18.79
-12.96
-7.49
-2.27
2.71
7.36
11.56
15.2
18.31
20.93
23.11
24.87
26.18
27
27.34
27.29
27.02
26.69
26.41
26.22
26.03
25.74
25.26
24.51
23.52
22.36
21.09
19.76
18.37
16.91
15.32
13.61
11.75
9.82
7.83
5.78
3.65
1.42
-0.86
-3.12
-5.27
-7.29
-9.22
-11.18
-13.37
-15.99
-19.27
-23.41
-28.45
-34.22
-40.26
-45.88
-50.28
-52.81
-53.09
-51.11
-47.17
-41.77
-35.45
-28.73
-22.03
-15.63
-9.7
-4.26
0.71
5.24
9.32
12.91
16.01
18.63
20.84
22.68
24.21
25.42
26.31
26.84
27.01
26.84
26.33
25.59
24.74
23.98
23.42
23.11
22.99
22.84
22.49
21.83
20.88
19.65
18.24
16.68
14.95
13.08
11.09
9
6.79
4.41
1.76
-1.24
-4.54
-8.03
-11.44
-14.6
-17.38
-19.86
-22.26
-24.89
-28
-31.64
-35.63
-39.45
-42.43
-43.88
-43.3
-40.53
-35.81
-29.72
-22.98
-16.3
-10.15
-4.77
-0.15
3.81
7.2
10.03
12.24
13.81
14.77
15.29
15.55
15.75
15.97
16.18
16.3
16.21
15.89
15.37
14.75
14.16
13.65
13.26
12.91
12.57
12.15
11.7
11.24
10.77
10.27
9.64
8.79
7.7
6.41
4.97
3.45
1.76
-0.21
-2.51
-5.1
-7.77
-10.26
-12.35
-14.06
-15.61
-17.33
-19.61
-22.61
-26.28
-30.26
-34.02
-36.97
-38.59
-38.63
-37.03
-34.03
-29.97
-25.28
-20.35
-15.49
-10.88
-6.65
-2.84
0.56
3.56
6.23
8.6
10.72
12.56
14.09
15.29
16.11
16.6
16.85
17.03
17.28
17.69
18.26
18.84
19.25
19.3
18.91
18.06
16.84
15.38
13.8
12.19
10.59
9
7.39
5.67
3.74
1.53
-1.01
-3.88
-6.96
-10.12
-13.16
-15.92
-18.33
-20.46
-22.55
-24.95
-28.03
-31.95
-36.63
-41.66
-46.39
-50.11
-52.17
-52.19
-50.04
-45.96
-40.38
-33.89
-27.12
-20.56
-14.5
-8.98
-3.93
0.8
5.17
9.04
12.14
14.31
15.55
16.04
16.15
16.2
16.36
16.64
16.93
17.08
17.04
16.81
16.5
16.21
15.96
15.71
15.38
14.88
14.2
13.32
12.28
11.05
9.65
8.06
6.25
4.28
2.18
-0.05
-2.45
-5.02
-7.84
-10.85
-14.01
-17.24
-20.56
-24.07
-27.96
-32.42
-37.5
-43.18
-49.22
-55.27
-60.81
-65.21
-67.81
-68.05
-65.6
-60.51
-53.24
-44.55
-35.29
-26.21
-17.73
-9.97
-2.77
4.1
10.78
17.2
23.19
28.5
33.03
36.84
40.08
42.94
45.47
47.6
49.17
50.05
50.2
49.75
48.94
48.01
47.14
46.37
45.58
44.53
42.98
40.72
37.67
33.92
29.7
25.33
21.13
17.3
13.97
11.09
8.51
6.01
3.45
0.71
-2.25
-5.34
-8.51
-11.62
-14.58
-17.38
-20.05
-22.85
-26.09
-30.16
-35.23
-41.14
-47.22
-52.48
-55.84
-56.46
-54.03
-48.79
-41.4
-32.7
-23.48
-14.35
-5.71
2.21
9.32
15.55
20.91
25.45
29.26
32.44
35.16
37.49
39.47
41.08
42.33
43.32
44.17
45.04
45.97
46.88
47.55
47.75
47.34
46.31
44.8
42.95
40.92
38.81
36.7
34.69
32.8
31.02
29.2
27.22
24.95
22.43
19.79
17.14
14.55
11.95
9.27
6.35
3.09
-0.51
-4.4
-8.43
-12.48
-16.45
-20.37
-24.4
-28.74
-33.59
-38.97
-44.61
-49.96
-54.26
-56.69
-56.67
-53.93
-48.67
-41.54
-33.38
-25.1
-17.36
-10.51
-4.54
0.71
5.42
9.66
13.4
16.59
19.26
21.52
23.55
25.5
27.41
29.22
30.83
32.09
32.97
33.45
33.6
33.53
33.28
32.85
32.09
30.91
29.21
27.13
24.9
22.85
21.12
19.63
18.12
16.3
14.1
11.69
9.43
7.61
6.31
5.34
4.31
2.88
0.83
-1.77
-4.71
-7.71
-10.51
-12.99
-15.14
-17.15
-19.28
-21.9
-25.26
-29.42
-34.11
-38.76
-42.61
-44.91
-45.15
-43.09
-38.91
-33
-25.98
-18.49
-11.13
-4.34
1.58
6.56
10.69
14.09
16.91
19.2
20.9
21.97
22.38
22.28
21.9
21.54
21.38
21.48
21.73
21.94
21.98
21.81
21.5
21.06
20.48
19.59
18.24
16.37
14.1
11.68
9.41
7.48
5.88
4.46
2.98
1.25
-0.77
-3.08
-5.55
-8.07
-10.54
-12.88
-15.06
-17.06
-18.93
-20.78
-22.83
-25.34
-28.52
-32.47
-37.02
-41.76
-45.99
-48.95
-49.95
-48.56
-44.79
-39.06
-32.12
-24.76
-17.66
-11.19
-5.4
-0.15
4.69
9.1
12.95
16.09
18.46
20.14
21.35
22.26
22.97
23.47
23.68
23.59
23.29
22.96
22.81
22.99
23.48
24.12
24.65
24.8
24.45
23.62
22.43
21.04
19.55
17.97
16.24
14.33
12.25
10.13
8.06
6.07
4
1.66
-1.14
-4.46
-8.19
-12.13
-16.07
-19.89
-23.59
-27.36
-31.37
-35.78
-40.58
-45.51
-50.13
-53.83
-55.96
-56.01
-53.73
-49.29
-43.15
-36
-28.55
-21.33
-14.68
-8.63
-3.14
1.9
6.51
10.64
14.17
17.02
19.18
20.72
21.75
22.36
22.68
22.79
22.76
22.66
22.59
22.63
22.75
22.91
22.99
22.86
22.47
21.83
20.98
19.97
18.86
17.66
16.42
15.12
13.79
12.4
10.9
9.2
7.19
4.74
1.79
-1.63
-5.41
-9.37
-13.3
-17.09
-20.68
-24.17
-27.66
-31.35
-35.32
-39.66
-44.32
-49.12
-53.64
-57.28
-59.33
-59.11
-56.32
-51.08
-44.03
-36.08
-28.12
-20.83
-14.42
-8.81
-3.69
1.18
5.84
10.14
13.85
16.79
18.87
20.21
20.98
21.44
21.75
21.99
22.15
22.18
22.04
21.69
21.16
20.46
19.65
18.73
17.66
16.33
14.68
12.73
10.66
8.78
7.34
6.49
6.12
5.96
5.75
5.28
4.53
3.55
2.39
1.01
-0.71
-2.86
-5.41
-8.24
-11.24
-14.39
-17.87
-21.94
-26.76
-32.17
-37.61
-42.19
-44.96
-45.22
-42.75
-37.9
-31.4
-24.12
-16.79
-9.85
-3.49
2.25
7.31
11.59
15.02
17.61
19.55
21.12
22.61
24.16
25.7
27.02
27.93
28.34
28.38
28.29
28.33
28.59
29.03
29.46
29.6
29.25
28.3
26.77
24.82
22.62
20.34
18.05
15.74
13.34
10.77
8.05
5.24
2.4
-0.47
-3.46
-6.68
-10.18
-13.88
-17.61
-21.19
-24.61
-28
-31.7
-36.03
-41.19
-47.06
-53.15
-58.7
-62.78
-64.61
-63.73
-60.08
-54.02
-46.21
-37.37
-28.24
-19.39
-11.18
-3.77
2.82
8.73
14.07
18.93
23.27
26.98
29.94
32.13
33.64
34.62
35.25
35.64
35.92
36.15
36.4
36.68
36.91
36.99
36.76
36.17
35.17
33.87
32.34
30.63
28.7
26.46
23.9
21.08
18.24
15.57
13.2
11.04
8.82
6.27
3.13
-0.62
-4.86
-9.33
-13.83
-18.2
-22.42
-26.57
-30.78
-35.28
-40.27
-45.9
-52.1
-58.45
-64.22
-68.49
-70.41
-69.36
-65.21
-58.32
-49.43
-39.5
-29.49
-20.13
-11.8
-4.52
1.96
7.91
13.53
18.81
23.51
27.38
30.24
32.12
33.24
33.89
34.36
34.84
35.42
36.15
36.99
37.86
38.7
39.38
39.84
39.99
39.76
39.12
38.11
36.81
35.33
33.78
32.12
30.26
28.01
25.29
22.17
18.91
15.77
12.88
10.14
7.26
3.91
-0.06
-4.56
-9.31
-14.06
-18.64
-23.11
-27.66
-32.55
-37.96
-43.96
-50.5
-57.32
-63.9
-69.49
-73.23
-74.33
-72.31
-67.2
-59.47
-49.94
-39.5
-28.98
-18.96
-9.81
-1.7
5.39
11.53
16.83
21.4
25.27
28.44
30.91
32.7
33.86
34.57
34.95
35.2
35.45
35.82
36.37
37.07
37.88
38.68
39.34
39.7
39.6
38.89
37.49
35.47
33.01
30.4
27.85
25.49
23.27
21.04
18.59
15.75
12.46
8.74
4.66
0.34
-4.1
-8.51
-12.77
-16.81
-20.61
-24.21
-27.75
-31.37
-35.25
-39.54
-44.27
-49.23
-53.87
-57.37
-58.77
-57.32
-52.76
-45.42
-36.17
-26.12
-16.28
-7.34
0.45
7.17
13
18.1
22.45
25.94
28.49
30.16
31.17
31.85
32.46
33.1
33.67
33.99
33.91
33.52
33.02
32.67
32.6
32.78
33
33
32.58
31.66
30.26
28.46
26.34
23.96
21.34
18.48
15.39
12.12
8.75
5.3
1.79
-1.85
-5.68
-9.74
-13.94
-18.11
-22.04
-25.61
-28.84
-31.84
-34.84
-38.11
-41.87
-46.28
-51.33
-56.71
-61.79
-65.71
-67.57
-66.78
-63.19
-57.19
-49.47
-40.83
-31.95
-23.2
-14.76
-6.67
1.04
8.31
14.99
20.9
25.9
29.9
32.99
35.29
36.97
38.11
38.78
39
38.89
38.64
38.45
38.44
38.54
38.58
38.35
37.72
36.68
35.3
33.62
31.61
29.21
26.45
23.51
20.65
18.14
16.09
14.44
13
11.54
9.86
7.79
5.21
2.01
-1.88
-6.39
-11.33
-16.36
-21.22
-25.71
-29.91
-34.03
-38.4
-43.36
-48.99
-55.13
-61.19
-66.31
-69.5
-69.93
-67.24
-61.62
-53.75
-44.58
-35.03
-25.75
-17.06
-8.99
-1.52
5.38
11.65
17.19
21.89
25.73
28.77
31.17
33.07
34.59
35.79
36.69
37.31
37.82
38.34
39.04
39.91
40.75
41.28
41.2
40.37
38.86
36.9
34.81
32.79
30.91
29.04
27.03
24.73
22.14
19.37
16.59
13.9
11.27
8.54
5.51
2.04
-1.89
-6.17
-10.64
-15.15
-19.54
-23.68
-27.48
-30.99
-34.38
-37.96
-42.07
-46.82
-52.03
-57.1
-61.18
-63.4
-63.09
-59.98
-54.26
-46.6
-37.84
-28.89
-20.41
-12.72
-5.83
0.42
6.21
11.6
16.52
20.86
24.55
27.6
30.07
32.06
33.61
34.8
35.7
36.45
37.17
37.91
38.65
39.33
39.85
40.17
40.24
40.05
39.52
38.61
37.26
35.54
33.53
31.27
28.74
25.88
22.7
19.28
15.78
12.42
9.28
6.29
3.21
-0.25
-4.26
-8.77
-13.62
-18.48
-23.08
-27.22
-30.91
-34.38
-37.96
-42.04
-46.85
-52.33
-58.03
-63.21
-66.97
-68.48
-67.28
-63.28
-56.86
-48.63
-39.41
-29.95
-20.9
-12.68
-5.45
0.89
6.61
11.96
17.13
22.11
26.68
30.59
33.58
35.58
36.67
37.1
37.12
36.92
36.61
36.2
35.68
35.01
34.19
33.2
32.02
30.58
28.84
26.8
24.54
22.24
20.07
18.18
16.57
15.13
13.62
11.83
9.67
7.21
4.65
2.2
-0.01
-2.02
-4.06
-6.31
-8.91
-11.81
-14.83
-17.77
-20.53
-23.19
-25.89
-28.91
-32.46
-36.67
-41.43
-46.42
-51.05
-54.6
-56.38
-55.89
-52.95
-47.78
-40.9
-32.97
-24.66
-16.55
-9.01
-2.3
3.53
8.54
12.87
16.65
20.01
22.93
25.35
27.21
28.48
29.25
29.65
29.84
29.92
29.92
29.77
29.41
28.83
28.05
27.15
26.16
25.08
23.86
22.49
20.95
19.35
17.82
16.47
15.31
14.26
13.19
12.03
10.77
9.48
8.19
6.85
5.31
3.42
1.06
-1.77
-4.93
-8.25
-11.54
-14.73
-17.84
-21.01
-24.45
-28.39
-33
-38.2
-43.66
-48.82
-52.97
-55.44
-55.81
-53.9
-49.84
-43.94
-36.68
-28.63
-20.37
-12.47
-5.38
0.62
5.45
9.23
12.16
14.45
16.26
17.7
18.87
19.85
20.77
21.72
22.76
23.84
24.91
25.82
26.54
26.99
27.14
26.96
26.4
25.48
24.17
22.57
20.74
18.79
16.77
14.68
12.48
10.09
7.46
4.57
1.44
-1.86
-5.24
-8.58
-11.76
-14.68
-17.28
-19.57
-21.69
-23.8
-26.19
-29.08
-32.61
-36.71
-41.07
-45.17
-48.33
-49.89
-49.38
-46.57
-41.62
-34.88
-26.96
-18.49
-10.08
-2.24
4.67
10.5
15.28
19.14
22.29
24.85
26.82
28.14
28.72
28.53
27.71
26.54
25.39
24.59
24.3
24.51
25.02
25.54
25.79
25.58
24.85
23.56
21.78
19.55
16.89
13.9
10.68
7.44
4.34
1.55
-0.86
-2.92
-4.74
-6.47
-8.22
-10.18
-12.48
-15.28
-18.66
-22.59
-26.81
-30.86
-34.13
-36
-36.05
-34.12
-30.43
-25.42
-19.7
-13.88
-8.37
-3.45
0.84
4.49
7.53
9.9
11.44
12.08
11.82
10.89
9.66
8.55
7.88
7.75
8.07
8.64
9.29
9.89
10.4
10.77
10.86
10.5
9.51
7.74
5.16
1.9
-1.95
-6.17
-10.64
-15.22
-19.83
-24.43
-29.06
-33.86
-39
-44.63
-50.72
-56.99
-62.89
-67.62
-70.35
-70.43
-67.58
-61.94
-54.07
-44.77
-34.83
-24.91
-15.36
-6.34
2.16
10.13
17.46
23.91
29.23
33.27
36.02
37.68
38.48
38.72
38.54
38.01
37.1
35.83
34.28
32.63
31.03
29.58
28.29
27
25.47
23.44
20.68
17.13
12.88
8.21
3.39
-1.35
-5.91
-10.36
-14.81
-19.44
-24.43
-29.95
-36.16
-43.05
-50.35
-57.45
-63.42
-67.22
-68.02
-65.44
-59.69
-51.44
-41.61
-31.1
-20.63
-10.62
-1.24
7.51
15.72
23.46
30.67
37.16
42.66
46.92
49.77
51.3
51.76
51.51
50.95
50.35
49.89
49.62
49.55
49.61
49.72
49.74
49.47
48.67
47.16
44.89
41.97
38.68
35.35
32.18
29.22
26.29
23.17
19.66
15.77
11.69
7.64
3.76
0.02
-3.76
-7.79
-12.16
-16.84
-21.68
-26.55
-31.45
-36.49
-41.93
-47.96
-54.62
-61.62
-68.31
-73.79
-77.1
-77.48
-74.63
-68.75
-60.47
-50.65
-40.1
-29.44
-19.05
-9.1
0.33
9.18
17.36
24.8
31.35
36.91
41.38
44.72
46.99
48.31
48.91
49.03
48.9
48.7
48.53
48.43
48.34
48.16
47.73
46.92
45.57
43.63
41.1
38.13
34.94
31.78
28.83
26.13
23.6
21.05
18.38
15.56
12.68
9.84
7.06
4.28
1.36
-1.78
-5.18
-8.8
-12.55
-16.38
-20.19
-23.9
-27.39
-30.64
-33.75
-37.01
-40.85
-45.61
-51.35
-57.65
-63.71
-68.44
-70.85
-70.3
-66.7
-60.51
-52.53
-43.64
-34.5
-25.49
-16.73
-8.21
0.03
7.83
14.97
21.23
26.5
30.8
34.27
37.01
39.09
40.5
41.25
41.44
41.27
41.01
40.9
41.06
41.4
41.72
41.73
41.21
40.1
38.46
36.51
34.44
32.45
30.62
28.98
27.5
26.07
24.58
22.9
20.95
18.76
16.45
14.15
11.95
9.77
7.47
4.84
1.78
-1.64
-5.22
-8.67
-11.84
-14.66
-17.27
-19.89
-22.75
-26.08
-30
-34.51
-39.36
-44.11
-48.16
-50.85
-51.67
-50.38
-47.04
-42
-35.77
-28.95
-22.08
-15.53
-9.51
-4.03
0.99
5.61
9.87
13.7
17.02
19.82
22.13
23.99
25.43
26.46
27.11
27.49
27.81
28.33
29.16
30.25
31.35
32.16
32.52
32.45
32.13
31.75
31.38
30.91
30.17
28.99
27.36
25.43
23.35
21.25
19.14
16.94
14.6
12.18
9.85
7.73
5.85
4.01
1.87
-0.83
-4.15
-7.83
-11.47
-14.65
-17.2
-19.27
-21.23
-23.5
-26.32
-29.71
-33.35
-36.78
-39.41
-40.7
-40.3
-38.15
-34.51
-29.86
-24.81
-19.83
-15.25
-11.11
-7.33
-3.76
-0.34
2.91
5.92
8.57
10.8
12.6
14.02
15.15
16.1
16.98
17.82
18.64
19.41
20.1
20.73
21.26
21.7
21.97
22.04
21.84
21.38
20.67
19.77
18.75
17.6
16.37
15.01
13.56
12.01
10.39
8.7
6.95
5.16
3.34
1.52
-0.31
-2.13
-3.97
-5.85
-7.79
-9.79
-11.82
-13.82
-15.72
-17.54
-19.37
-21.42
-23.9
-26.89
-30.25
-33.55
-36.18
-37.53
-37.19
-35.06
-31.39
-26.68
-21.5
-16.41
-11.8
-7.82
-4.46
-1.53
1.1
3.5
5.6
7.33
8.69
9.86
11.02
12.31
13.69
14.95
15.86
16.27
16.32
16.25
16.35
16.74
17.37
18.02
18.43
18.4
17.83
16.78
15.4
13.93
12.55
11.32
10.18
8.98
7.63
6.13
4.62
3.24
2.02
0.81
-0.61
-2.41
-4.57
-6.89
-9.09
-11
-12.6
-14.05
-15.52
-17.13
-18.87
-20.69
-22.61
-24.69
-27.04
-29.63
-32.25
-34.48
-35.8
-35.77
-34.14
-30.99
-26.65
-21.64
-16.53
-11.78
-7.63
-4.16
-1.28
1.14
3.24
5.1
6.73
8.12
9.26
10.21
11.02
11.81
12.59
13.34
13.99
14.49
14.87
15.26
15.83
16.65
17.6
18.38
18.66
18.21
17.08
15.55
13.99
12.67
11.68
10.91
10.17
9.27
8.19
6.95
5.62
4.28
2.91
1.45
-0.16
-1.96
-3.9
-5.86
-7.69
-9.27
-10.6
-11.8
-13.02
-14.45
-16.16
-18.21
-20.53
-22.96
-25.26
-27.01
-27.77
-27.15
-25.02
-21.56
-17.24
-12.68
-8.43
-4.84
-2.04
0.05
1.68
3.07
4.41
5.73
6.96
7.96
8.64
8.98
9.11
9.17
9.29
9.54
9.9
10.32
10.81
11.35
11.97
12.59
13.14
13.48
13.53
13.25
12.65
11.84
10.97
10.16
9.45
8.76
7.88
6.63
4.91
2.8
0.53
-1.63
-3.52
-5.15
-6.63
-8.09
-9.56
-10.95
-12.16
-13.15
-14.01
-14.93
-16.13
-17.79
-19.93
-22.46
-25.09
-27.43
-29.03
-29.49
-28.61
-26.44
-23.26
-19.48
-15.53
-11.7
-8.18
-5.06
-2.41
-0.26
1.4
2.65
3.7
4.74
5.91
7.2
8.51
9.68
10.61
11.24
11.66
11.96
12.24
12.49
12.69
12.72
12.52
12.07
11.44
10.74
10.04
9.32
8.51
7.5
6.25
4.82
3.35
1.99
0.81
-0.19
-1.13
-2.12
-3.23
-4.5
-5.83
-7.12
-8.33
-9.38
-10.27
-11.06
-11.83
-12.75
-14.02
-15.84
-18.26
-21.14
-24.13
-26.69
-28.32
-28.64
-27.55
-25.19
-21.86
-17.91
-13.68
-9.45
-5.49
-2.01
0.87
3.13
4.87
6.23
7.33
8.26
9.06
9.72
10.26
10.68
10.98
11.15
11.22
11.19
11.1
10.98
10.84
10.69
10.46
10.12
9.6
8.91
8.03
7
5.83
4.6
3.34
2.11
0.91
-0.28
-1.48
-2.7
-3.94
-5.17
-6.39
-7.59
-8.71
-9.71
-10.5
-11.06
-11.44
-11.82
-12.37
-13.34
-14.82
-16.88
-19.41
-22.16
-24.76
-26.67
-27.38
-26.51
-23.99
-20.11
-15.48
-10.78
-6.52
-2.93
0.14
2.92
5.66
8.36
10.86
12.91
14.32
15.05
15.19
14.94
14.46
13.92
13.41
13
12.73
12.6
12.62
12.68
12.7
12.59
12.29
11.76
11.01
10.02
8.8
7.4
5.91
4.45
3.14
1.95
0.8
-0.55
-2.23
-4.27
-6.47
-8.58
-10.32
-11.66
-12.67
-13.59
-14.61
-15.82
-17.26
-18.94
-20.94
-23.28
-25.84
-28.22
-29.8
-29.98
-28.36
-24.97
-20.24
-14.83
-9.42
-4.5
-0.33
3.1
5.81
7.9
9.46
10.59
11.52
12.43
13.5
14.75
16.08
17.25
18.14
18.66
18.94
19.15
19.4
19.72
19.97
20.02
19.75
19.13
18.17
16.89
15.33
13.55
11.65
9.77
8.03
6.44
4.96
3.47
1.86
0.05
-1.96
-4.13
-6.42
-8.75
-11.04
-13.24
-15.34
-17.41
-19.56
-21.94
-24.59
-27.45
-30.26
-32.64
-34.19
-34.51
-33.37
-30.76
-26.89
-22.17
-17.07
-12.04
-7.35
-3.16
0.52
3.74
6.46
8.66
10.31
11.44
12.17
12.68
13.18
13.79
14.53
15.28
15.86
16.11
15.98
15.57
15.05
14.58
14.23
13.9
13.44
12.73
11.71
10.45
9.07
7.65
6.2
4.66
2.98
1.13
-0.83
-2.82
-4.73
-6.51
-8.17
-9.73
-11.23
-12.7
-14.17
-15.75
-17.59
-19.86
-22.72
-26.14
-29.91
-33.62
-36.74
-38.76
-39.26
-38.03
-35.12
-30.8
-25.52
-19.82
-14.17
-8.93
-4.25
-0.12
3.51
6.73
9.56
11.97
13.96
15.5
16.67
17.57
18.35
19.11
19.9
20.63
21.18
21.43
21.3
20.83
20.09
19.18
18.16
17.04
15.86
14.69
13.62
12.72
11.99
11.29
10.45
9.32
7.87
6.18
4.34
2.43
0.45
-1.64
-3.85
-6.15
-8.41
-10.51
-12.44
-14.29
-16.29
-18.68
-21.63
-25.1
-28.79
-32.15
-34.49
-35.25
-34.14
-31.25
-26.97
-21.84
-16.36
-10.88
-5.59
-0.66
3.8
7.61
10.66
12.91
14.45
15.45
16.06
16.45
16.72
16.95
17.18
17.46
17.75
18.04
18.28
18.44
18.44
18.28
17.89
17.27
16.36
15.15
13.63
11.86
9.94
7.95
5.96
3.98
1.91
-0.38
-2.98
-5.86
-8.84
-11.7
-14.27
-16.48
-18.41
-20.23
-22.08
-24.04
-26.23
-28.72
-31.56
-34.7
-37.9
-40.73
-42.63
-43.05
-41.6
-38.24
-33.23
-27.11
-20.55
-14.16
-8.36
-3.32
1.02
4.89
8.49
11.89
15.01
17.69
19.84
21.38
22.38
22.89
22.93
22.5
21.65
20.52
19.35
18.4
17.84
17.66
17.7
17.7
17.45
16.83
15.86
14.61
13.2
11.7
10.07
8.26
6.16
3.72
0.97
-1.93
-4.83
-7.53
-9.97
-12.14
-14.17
-16.2
-18.33
-20.72
-23.45
-26.61
-30.16
-33.82
-37.11
-39.39
-40.09
-38.87
-35.71
-30.91
-25
-18.54
-12.06
-5.98
-0.61
3.87
7.46
10.24
12.4
14.13
15.55
16.76
17.76
18.56
19.15
19.54
19.76
19.85
19.87
19.89
20.03
20.31
20.71
21.13
21.35
21.17
20.4
19.03
17.13
15
12.85
10.86
9
7.08
4.86
2.23
-0.75
-3.84
-6.73
-9.25
-11.4
-13.36
-15.4
-17.79
-20.73
-24.33
-28.57
-33.23
-37.86
-41.79
-44.25
-44.58
-42.4
-37.79
-31.29
-23.77
-16.11
-9.04
-2.88
2.38
6.97
11.14
15
18.49
21.46
23.74
25.28
26.18
26.59
26.63
26.44
26.1
25.7
25.36
25.16
25.16
25.32
25.49
25.47
25.06
24.09
22.49
20.38
17.97
15.53
13.2
11
8.79
6.32
3.46
0.17
-3.38
-6.94
-10.28
-13.28
-16
-18.63
-21.47
-24.81
-28.87
-33.61
-38.82
-44
-48.44
-51.44
-52.4
-50.98
-47.19
-41.41
-34.2
-26.33
-18.49
-11.19
-4.74
0.83
5.62
9.78
13.39
16.52
19.22
21.53
23.53
25.3
26.85
28.16
29.23
30.08
30.89
31.86
33.12
34.66
36.2
37.36
37.76
37.24
35.82
33.76
31.34
28.78
26.19
23.54
20.83
18.01
15.04
11.88
8.46
4.79
0.92
-2.88
-6.34
-9.21
-11.46
-13.3
-15.16
-17.52
-20.73
-24.84
-29.52
-34.15
-37.9
-39.97
-39.84
-37.38
-32.92
-27.16
-20.9
-14.84
-9.51
-5.11
-1.64
1.01
3.03
4.57
5.84
7.07
8.5
10.27
12.34
14.57
16.71
18.6
20.2
21.6
22.92
24.24
25.4
26.17
26.3
25.68
24.48
23
21.58
20.45
19.62
18.91
17.99
16.55
14.37
11.44
7.9
3.97
-0.23
-4.69
-9.51
-14.87
-20.86
-27.42
-34.32
-41.12
-47.26
-52.11
-55.05
-55.57
-53.47
-48.89
-42.43
-34.93
-27.34
-20.33
-14.19
-8.88
-4.16
0.18
4.16
7.65
10.48
12.6
14.07
15.16
16.07
17
17.97
18.88
19.59
19.96
19.94
19.55
18.86
17.94
16.79
15.34
13.52
11.28
8.67
5.84
2.93
0.03
-2.89
-5.89
-9.11
-12.57
-16.23
-20.01
-23.81
-27.68
-31.79
-36.37
-41.61
-47.41
-53.28
-58.33
-61.52
-61.93
-59.1
-53.22
-45.02
-35.55
-25.83
-16.66
-8.45
-1.29
4.97
10.57
15.73
20.53
24.91
28.74
31.85
34.22
35.88
36.91
37.32
37.07
36.17
34.74
33.06
31.52
30.4
29.8
29.56
29.31
28.62
27.12
24.56
20.94
16.41
11.32
6.1
1.13
-3.29
-7.12
-10.5
-13.72
-17.17
-21.25
-26.29
-32.36
-39.05
-45.43
-50.17
-51.95
-49.91
-43.93
-34.77
-23.72
-12.17
-1.24
8.42
16.48
22.87
27.53
30.54
32.14
32.76
32.96
33.24
33.92
35.05
36.4
37.68
38.6
39.02
38.92
38.44
37.72
36.83
35.74
34.29
32.24
29.36
25.5
20.69
15.18
9.43
4.02
-0.57
-4.03
-6.4
-8.04
-9.51
-11.4
-14.11
-17.71
-21.92
-26.07
-29.31
-30.78
-29.8
-26.06
-19.78
-11.63
-2.63
6.2
13.97
20.13
24.42
26.82
27.52
26.8
25.08
22.79
20.4
18.28
16.69
15.69
15.21
15.1
15.18
15.24
15.14
14.72
13.89
12.59
10.81
8.55
5.9
2.99
0.04
-2.75
-5.29
-7.65
-10.07
-12.86
-16.3
-20.38
-24.81
-28.99
-32.13
-33.49
-32.57
-29.25
-23.88
-17.18
-10
-3.14
2.92
8.05
12.45
16.44
20.22
23.75
26.88
29.37
31.12
32.12
32.56
32.54
32.22
31.69
31.01
30.32
29.67
29.08
28.49
27.76
26.77
25.47
23.95
22.35
20.82
19.44
18.19
16.93
15.46
13.51
10.88
7.55
3.8
0.23
-2.39
-3.24
-1.78
2.12
8.17
15.79
24.27
33
41.57
49.69
57.12
63.58
68.59
71.58
71.92
69.14
63.12
54.1
42.67
29.59
15.65
1.46
-12.42
-25.57
-37.52
-47.81
-56.09
-62.32
-66.79
-70.09
-72.9
-75.72
-78.83
-82.29
-86.03
-89.99
-94.12
-98.17
-101.66
-103.87
-103.92
-101.2
-95.52
-87.16
-76.85
-65.5
-53.97
-42.9
-32.69
-23.51
-15.39
-8.29
-2.11
3.22
7.85
11.88
15.42
18.52
21.13
23.16
24.55
25.28
25.52
25.54
25.6
25.87
26.33
26.78
26.85
26.23
24.73
22.33
19.2
15.64
11.93
8.28
4.77
1.32
-2.27
-6.29
-10.93
-16.21
-21.83
-27.18
-31.44
-33.79
-33.64
-30.89
-25.81
-19.07
-11.4
-3.49
4.15
11.24
17.66
23.42
28.55
33.11
37.05
40.34
42.86
44.59
45.6
46.11
46.45
46.94
47.81
49.14
50.81
52.62
54.38
56
57.44
58.74
59.94
61
61.91
62.63
63.23
63.83
64.57
65.5
66.58
67.63
68.39
68.65
68.18
66.69
63.77
58.93
51.72
41.95
29.8
15.86
0.99
-13.98
-28.41
-42.03
-54.83
-66.84
-77.96
-87.82
-95.88
-101.54
-104.36
-104.22
-101.37
-96.43
-90.24
-83.71
-77.56
-72.33
-68.17
-65.09
-62.82
-61.04
-59.39
-57.51
-55.15
-52.13
-48.48
-44.33
-39.93
-35.5
-31.16
-27.05
-23.24
-19.89
-17.14
-15.14
-13.96
-13.61
-14.06
-15.23
-16.91
-18.73
-20.11
-20.3
-18.67
-14.88
-9.07
-1.86
5.93
13.47
20.26
26.04
30.9
34.91
38.14
40.59
42.23
43.11
43.42
43.47
43.58
44.03
44.96
46.33
47.98
49.68
51.26
52.57
53.62
54.51
55.36
56.29
57.31
58.34
59.17
59.59
59.4
58.55
57.11
55.31
53.42
51.59
49.88
48.07
45.92
43.18
39.78
35.88
31.84
28.14
25.15
23.02
21.6
20.46
19.01
16.65
13.06
8.18
2.31
-4.07
-10.47
-16.56
-22.18
-27.33
-32.05
-36.29
-39.93
-42.75
-44.56
-45.23
-44.79
-43.4
-41.33
-38.93
-36.48
-34.2
-32.24
-30.72
-29.76
-29.51
-30.02
-31.19
-32.75
-34.27
-35.4
-35.96
-36.05
-35.94
-35.96
-36.33
-37.11
-38.2
-39.38
-40.35
-40.76
-40.22
-38.42
-35.25
-30.89
-25.78
-20.47
-15.39
-10.76
-6.52
-2.42
1.76
6.1
10.49
14.65
18.27
21.14
23.21
24.57
25.4
25.8
25.79
25.3
24.3
22.81
20.99
19.1
17.4
16.08
15.16
14.54
14
13.3
12.21
10.64
8.63
6.32
3.94
1.66
-0.43
-2.41
-4.47
-6.84
-9.71
-13.1
-16.83
-20.49
-23.57
-25.5
-25.83
-24.4
-21.26
-16.72
-11.22
-5.24
0.91
6.94
12.73
18.2
23.19
27.56
31.07
33.53
34.8
34.96
34.21
32.77
30.87
28.67
26.28
23.77
21.33
19.11
17.24
15.7
14.27
12.63
10.49
7.72
4.38
0.69
-3.11
-6.83
-10.35
-13.54
-16.29
-18.47
-20.06
-21.17
-22.06
-22.97
-24.11
-25.46
-26.85
-27.95
-28.48
-28.2
-26.95
-24.67
-21.42
-17.42
-12.95
-8.43
-4.26
-0.76
1.9
3.72
4.83
5.41
5.64
5.66
5.51
5.22
4.77
4.17
3.47
2.72
1.98
1.26
0.59
-0.03
-0.62
-1.16
-1.67
-2.22
-2.84
-3.56
-4.4
-5.41
-6.65
-8.2
-10.06
-12.13
-14.23
-16.2
-17.96
-19.6
-21.3
-23.19
-25.22
-27.15
-28.57
-29.04
-28.23
-26.03
-22.58
-18.21
-13.34
-8.39
-3.66
0.68
4.59
8.01
10.85
13
14.4
15.15
15.48
15.74
16.2
16.95
17.85
18.65
19.06
18.9
18.19
17.01
15.53
13.88
12.16
10.41
8.65
6.9
5.15
3.42
1.71
0.08
-1.41
-2.71
-3.78
-4.7
-5.58
-6.65
-8.06
-9.89
-12.1
-14.44
-16.62
-18.22
-18.85
-18.21
-16.19
-12.93
-8.84
-4.47
-0.39
2.95
5.4
7.02
8.03
8.62
8.9
8.9
8.64
8.17
7.59
7
6.39
5.7
4.88
3.95
3.04
2.36
2.06
2.13
2.41
2.59
2.37
1.6
0.3
-1.36
-3.1
-4.67
-5.97
-7.04
-8.1
-9.42
-11.17
-13.37
-15.79
-18.02
-19.61
-20.11
-19.3
-17.09
-13.68
-9.38
-4.69
-0.04
4.14
7.6
10.23
12.06
13.22
13.9
14.3
14.57
14.79
14.89
14.74
14.21
13.32
12.21
11.14
10.29
9.68
9.16
8.46
7.37
5.86
4.03
2.08
0.13
-1.75
-3.59
-5.43
-7.28
-9.13
-11.05
-13.16
-15.6
-18.43
-21.5
-24.4
-26.51
-27.11
-25.75
-22.34
-17.28
-11.28
-5.16
0.41
5.06
8.66
11.34
13.22
14.52
15.4
16.05
16.62
17.15
17.56
17.69
17.37
16.52
15.24
13.69
12.07
10.46
8.88
7.26
5.54
3.69
1.73
-0.32
-2.47
-4.79
-7.34
-10.16
-13.15
-16.2
-19.13
-21.85
-24.4
-26.97
-29.75
-32.83
-36.12
-39.27
-41.79
-43.2
-43.05
-41.17
-37.57
-32.55
-26.48
-19.85
-13.14
-6.76
-0.99
4.08
8.47
12.31
15.71
18.71
21.31
23.37
24.86
25.7
25.87
25.4
24.34
22.77
20.82
18.73
16.8
15.34
14.55
14.52
15.03
15.73
16.07
15.55
13.87
11.07
7.63
4.23
1.6
0.19
0
0.56
1.12
0.99
-0.25
-2.59
-5.73
-9.23
-12.75
-16.06
-18.97
-21.26
-22.59
-22.6
-21.05
-17.99
-13.76
-8.9
-3.96
0.7
4.85
8.49
11.59
14.18
16.21
17.72
18.76
19.44
19.98
20.6
21.49
22.75
24.3
25.87
27.07
27.57
27.27
26.34
25.17
24.15
23.44
22.9
22.2
20.95
18.98
16.32
13.24
10.05
7.01
4.25
1.73
-0.59
-2.82
-4.97
-7.08
-9.11
-11.05
-12.91
-14.67
-16.35
-17.93
-19.41
-20.68
-21.68
-22.29
-22.39
-21.87
-20.64
-18.71
-16.16
-13.18
-10.01
-6.93
-4.22
-2.06
-0.6
0.28
0.7
0.89
1.03
1.25
1.58
1.98
2.4
2.82
3.27
3.74
4.28
4.85
5.42
5.97
6.47
6.89
7.13
7.14
6.81
6.12
5.17
4.04
2.86
1.7
0.61
-0.45
-1.55
-2.75
-4.1
-5.58
-7.11
-8.49
-9.54
-10.16
-10.5
-10.84
-11.59
-13.03
-15.15
-17.59
-19.79
-21.19
-21.38
-20.29
-18.09
-15.12
-11.75
-8.31
-5.08
-2.23
0.13
1.99
3.44
4.59
5.56
6.41
7.17
7.83
8.34
8.69
8.84
8.8
8.58
8.24
7.86
7.58
7.5
7.66
7.97
8.22
8.14
7.54
6.42
4.94
3.44
2.18
1.32
0.8
0.39
-0.13
-0.95
-2.02
-3.21
-4.27
-5
-5.32
-5.31
-5.19
-5.24
-5.68
-6.58
-7.86
-9.32
-10.74
-11.96
-12.84
-13.27
-13.12
-12.29
-10.7
-8.48
-5.9
-3.31
-1.04
0.77
2.1
3.05
3.76
4.32
4.73
4.99
5.09
5.08
5.04
5.05
5.16
5.39
5.64
5.8
5.77
5.55
5.19
4.8
4.47
4.2
3.91
3.48
2.81
1.86
0.71
-0.56
-1.81
-2.92
-3.81
-4.34
-4.48
-4.23
-3.75
-3.26
-2.94
-2.98
-3.41
-4.23
-5.32
-6.55
-7.74
-8.73
-9.4
-9.71
-9.78
-9.73
-9.72
-9.75
-9.69
-9.31
-8.41
-6.97
-5.13
-3.17
-1.34
0.19
1.49
2.65
3.78
4.87
5.75
6.23
6.18
5.71
5.03
4.41
4.03
3.89
3.9
3.92
3.94
4
4.19
4.46
4.68
4.63
4.16
3.31
2.2
1.05
0.01
-0.84
-1.51
-2.01
-2.4
-2.72
-3.03
-3.4
-3.88
-4.46
-5.13
-5.85
-6.63
-7.38
-8.06
-8.57
-8.86
-9.01
-9.11
-9.32
-9.65
-9.97
-10
-9.53
-8.49
-7.01
-5.34
-3.73
-2.34
-1.2
-0.28
0.43
0.89
1.09
1
0.69
0.28
-0.08
-0.23
-0.11
0.28
0.82
1.42
1.95
2.39
2.75
3.08
3.45
3.83
4.21
4.53
4.73
4.79
4.67
4.36
3.83
3.15
2.37
1.57
0.81
0.07
-0.67
-1.48
-2.3
-3.08
-3.72
-4.22
-4.68
-5.19
-5.86
-6.64
-7.43
-8.04
-8.3
-8.1
-7.46
-6.49
-5.3
-4.03
-2.73
-1.45
-0.22
0.92
1.87
2.53
2.82
2.79
2.56
2.36
2.33
2.54
2.92
3.34
3.67
3.81
3.76
3.55
3.25
2.91
2.61
2.4
2.33
2.39
2.52
2.59
2.47
2.09
1.45
0.66
-0.1
-0.67
-0.98
-1.12
-1.26
-1.69
-2.57
-3.88
-5.44
-6.91
-8.05
-8.74
-9.09
-9.34
-9.71
-10.34
-11.15
-11.97
-12.54
-12.62
-12.04
-10.79
-8.95
-6.75
-4.4
-2.09
0.08
2.08
3.89
5.47
6.7
7.5
7.88
7.93
7.8
7.62
7.51
7.47
7.48
7.55
7.68
7.9
8.21
8.58
8.96
9.29
9.45
9.33
8.86
8.04
7
5.89
4.87
3.96
3.04
1.97
0.62
-0.98
-2.67
-4.19
-5.34
-6.06
-6.43
-6.65
-6.93
-7.39
-8.06
-8.93
-9.96
-11.12
-12.36
-13.6
-14.69
-15.37
-15.36
-14.5
-12.83
-10.52
-7.9
-5.27
-2.79
-0.53
1.52
3.31
4.77
5.76
6.22
6.19
5.84
5.45
5.16
5.1
5.26
5.58
5.99
6.46
6.95
7.38
7.69
7.85
7.82
7.65
7.4
7.12
6.79
6.4
5.92
5.37
4.75
4.05
3.2
2.15
0.92
-0.46
-1.86
-3.23
-4.54
-5.84
-7.17
-8.57
-10.02
-11.43
-12.77
-14.03
-15.19
-16.17
-16.82
-16.95
-16.38
-15.05
-12.99
-10.38
-7.47
-4.46
-1.56
1.13
3.55
5.66
7.41
8.75
9.63
10.02
9.95
9.52
8.89
8.24
7.78
7.58
7.64
7.86
8.11
8.31
8.38
8.34
8.2
7.95
7.55
6.97
6.23
5.42
4.63
3.91
3.28
2.68
2.03
1.29
0.46
-0.37
-1.15
-1.82
-2.35
-2.72
-3.02
-3.35
-3.84
-4.6
-5.63
-6.93
-8.4
-10.01
-11.73
-13.5
-15.21
-16.62
-17.43
-17.34
-16.24
-14.16
-11.34
-8.09
-4.7
-1.4
1.71
4.62
7.34
9.86
12.13
13.99
15.31
16.04
16.31
16.4
16.57
17.01
17.63
18.24
18.61
18.66
18.56
18.62
19.16
20.27
21.76
23.24
24.22
24.32
23.37
21.53
19.09
16.46
13.99
11.87
10.05
8.36
6.6
4.54
2.07
-0.95
-4.6
-8.96
-13.98
-19.48
-25.2
-30.77
-35.94
-40.51
-44.38
-47.43
-49.42
-50.04
-48.95
-46
-41.25
-35.06
-27.95
-20.53
-13.4
-7.04
-1.76
2.35
5.33
7.35
8.63
9.33
9.59
9.47
9.07
8.53
8.06
7.83
7.97
8.48
9.22
10.01
10.65
10.99
10.95
10.53
9.78
8.73
7.45
5.98
4.37
2.71
1.08
-0.48
-1.92
-3.3
-4.68
-6.08
-7.52
-8.91
-10.15
-11.14
-11.91
-12.55
-13.26
-14.24
-15.64
-17.56
-19.96
-22.7
-25.55
-28.09
-29.9
-30.53
-29.69
-27.28
-23.51
-18.79
-13.6
-8.4
-3.5
0.93
4.87
8.24
11.01
13.08
14.45
15.19
15.44
15.46
15.46
15.63
16.03
16.62
17.28
17.88
18.33
18.6
18.76
18.87
18.96
18.99
18.76
18.1
16.92
15.24
13.23
11.16
9.2
7.43
5.8
4.16
2.39
0.39
-1.82
-4.17
-6.53
-8.83
-11.03
-13.12
-15.23
-17.48
-19.98
-22.76
-25.8
-28.89
-31.74
-34.01
-35.28
-35.27
-33.77
-30.79
-26.52
-21.34
-15.68
-9.97
-4.58
0.29
4.51
8.13
11.21
13.9
16.3
18.45
20.35
21.93
23.16
24
24.53
24.82
24.95
24.94
24.77
24.4
23.84
23.19
22.53
21.93
21.33
20.6
19.63
18.31
16.69
14.86
12.99
11.11
9.22
7.27
5.18
2.96
0.66
-1.65
-3.91
-6.17
-8.5
-10.98
-13.66
-16.55
-19.56
-22.67
-25.87
-29.24
-32.79
-36.42
-39.8
-42.42
-43.67
-43.1
-40.51
-36.08
-30.3
-23.82
-17.25
-11.04
-5.39
-0.3
4.35
8.65
12.57
16
18.81
20.95
22.48
23.65
24.71
25.81
26.98
28.09
28.98
29.53
29.76
29.74
29.65
29.55
29.43
29.16
28.52
27.31
25.43
22.97
20.07
17.05
14.14
11.47
9.05
6.8
4.61
2.35
-0.05
-2.58
-5.24
-7.96
-10.6
-13.01
-15.13
-16.96
-18.72
-20.75
-23.44
-27.02
-31.45
-36.35
-41
-44.59
-46.39
-45.97
-43.3
-38.75
-32.92
-26.41
-19.7
-13.01
-6.45
-0.06
6.05
11.65
16.49
20.31
23.01
24.65
25.4
25.49
25.18
24.67
24.11
23.63
23.33
23.24
23.35
23.56
23.76
23.81
23.64
23.18
22.43
21.35
19.99
18.33
16.45
14.42
12.34
10.27
8.19
6.1
3.93
1.67
-0.64
-2.95
-5.19
-7.33
-9.33
-11.24
-13.06
-14.92
-16.96
-19.38
-22.41
-26.13
-30.48
-35.03
-39.18
-42.18
-43.38
-42.37
-39.16
-34.15
-27.98
-21.37
-14.93
-9.04
-3.82
0.83
5.05
8.98
12.61
15.87
18.63
20.82
22.4
23.45
24.08
24.44
24.66
24.81
24.98
25.18
25.4
25.6
25.71
25.63
25.16
24.13
22.46
20.19
17.59
15.03
12.85
11.14
9.71
8.17
6.19
3.66
0.77
-2.13
-4.73
-6.92
-8.82
-10.65
-12.66
-15
-17.72
-20.86
-24.37
-28.13
-31.82
-34.92
-36.84
-36.99
-35.05
-31.08
-25.5
-18.95
-12.12
-5.6
0.28
5.36
9.66
13.23
16.09
18.3
19.89
20.97
21.69
22.17
22.48
22.61
22.56
22.34
22.02
21.79
21.75
21.92
22.12
22.09
21.55
20.35
18.51
16.21
13.69
11.17
8.78
6.5
4.25
1.94
-0.51
-3.04
-5.6
-8.1
-10.53
-12.94
-15.48
-18.27
-21.42
-24.98
-28.92
-33.17
-37.59
-41.89
-45.64
-48.22
-48.95
-47.36
-43.32
-37.13
-29.48
-21.22
-13.11
-5.68
0.88
6.65
11.76
16.31
20.25
23.49
25.9
27.49
28.39
28.77
28.83
28.62
28.14
27.38
26.41
25.32
24.33
23.51
22.82
22.05
20.95
19.32
17.14
14.57
11.89
9.45
7.44
5.85
4.43
2.81
0.66
-2.16
-5.54
-9.2
-12.83
-16.26
-19.55
-22.92
-26.62
-30.79
-35.39
-40.16
-44.69
-48.44
-50.85
-51.46
-49.99
-46.44
-41.01
-34.12
-26.23
-17.86
-9.51
-1.59
5.59
11.88
17.25
21.74
25.4
28.24
30.26
31.5
32.1
32.23
32.08
31.73
31.27
30.68
30.02
29.34
28.72
28.16
27.56
26.8
25.73
24.27
22.41
20.22
17.77
15.14
12.39
9.51
6.49
3.34
0.05
-3.28
-6.55
-9.61
-12.43
-15.02
-17.59
-20.41
-23.8
-27.94
-32.75
-37.85
-42.56
-46.06
-47.58
-46.66
-43.28
-37.77
-30.76
-22.96
-15
-7.34
-0.27
6.06
11.55
16.16
19.89
22.76
24.88
26.39
27.46
28.2
28.67
28.9
28.9
28.73
28.46
28.27
28.2
28.19
28.03
27.43
26.16
24.16
21.58
18.69
15.77
12.99
10.38
7.91
5.5
3.11
0.73
-1.68
-4.23
-7.01
-10.09
-13.46
-17
-20.59
-24.17
-27.85
-31.86
-36.41
-41.62
-47.24
-52.69
-57.06
-59.4
-58.99
-55.63
-49.67
-41.84
-32.96
-23.72
-14.5
-5.48
3.2
11.33
18.63
24.74
29.51
32.93
35.2
36.6
37.38
37.74
37.8
37.69
37.46
37.16
36.79
36.32
35.69
34.85
33.79
32.51
31
29.23
27.18
24.8
22.14
19.31
16.5
13.86
11.44
9.11
6.67
3.91
0.76
-2.7
-6.24
-9.65
-12.77
-15.65
-18.47
-21.52
-25.1
-29.46
-34.65
-40.51
-46.55
-51.98
-55.9
-57.47
-56.2
-52.06
-45.49
-37.29
-28.38
-19.52
-11.17
-3.51
3.61
10.31
16.62
22.37
27.24
30.92
33.29
34.46
34.76
34.6
34.31
34.13
34.15
34.38
34.76
35.21
35.64
35.92
35.9
35.49
34.6
33.23
31.4
29.21
26.76
24.2
21.63
19.1
16.57
13.93
11.09
7.92
4.43
0.63
-3.4
-7.53
-11.61
-15.49
-19.06
-22.32
-25.4
-28.54
-32.03
-36.04
-40.52
-45.14
-49.28
-52.18
-53.1
-51.56
-47.48
-41.22
-33.43
-24.86
-16.15
-7.73
0.16
7.37
13.72
18.99
23
25.66
27.11
27.66
27.74
27.71
27.78
27.98
28.19
28.26
28.12
27.84
27.56
27.37
27.25
27.05
26.57
25.67
24.35
22.74
21.04
19.37
17.82
16.4
15
13.53
11.82
9.75
7.27
4.42
1.36
-1.71
-4.64
-7.37
-9.95
-12.48
-15.02
-17.65
-20.5
-23.74
-27.6
-32.1
-37
-41.71
-45.4
-47.26
-46.73
-43.69
-38.44
-31.66
-24.15
-16.69
-9.81
-3.73
1.57
6.21
10.22
13.59
16.15
17.85
18.78
19.24
19.56
20.02
20.68
21.42
22.06
22.47
22.65
22.73
22.77
22.79
22.7
22.42
21.84
20.95
19.76
18.3
16.62
14.72
12.65
10.46
8.24
6.11
4.16
2.39
0.72
-1.07
-3.16
-5.65
-8.42
-11.2
-13.77
-16.06
-18.24
-20.63
-23.48
-26.83
-30.41
-33.78
-36.42
-37.9
-37.93
-36.38
-33.3
-28.86
-23.43
-17.42
-11.22
-5.15
0.53
5.62
9.91
13.19
15.39
16.61
17.13
17.31
17.4
17.5
17.57
17.58
17.53
17.51
17.6
17.81
18.08
18.26
18.28
18.08
17.7
17.13
16.36
15.35
14.04
12.45
10.58
8.51
6.3
4.08
1.93
-0.07
-1.93
-3.7
-5.45
-7.26
-9.08
-10.9
-12.72
-14.57
-16.59
-18.97
-21.85
-25.23
-28.94
-32.54
-35.43
-36.95
-36.55
-34.02
-29.56
-23.72
-17.21
-10.72
-4.7
0.63
5.2
9
11.99
14.22
15.78
16.9
17.8
18.67
19.51
20.2
20.57
20.52
20.09
19.46
18.83
18.36
18.06
17.83
17.46
16.77
15.64
14.08
12.22
10.23
8.28
6.45
4.78
3.22
1.76
0.34
-1.11
-2.67
-4.45
-6.53
-8.89
-11.4
-13.88
-16.21
-18.44
-20.76
-23.45
-26.68
-30.36
-34.14
-37.42
-39.53
-39.94
-38.37
-34.86
-29.76
-23.64
-17.14
-10.87
-5.2
-0.33
3.78
7.23
10.11
12.45
14.23
15.49
16.39
17.09
17.8
18.59
19.37
19.94
20.14
19.89
19.33
18.7
18.25
18.09
18.11
18.1
17.79
17.04
15.86
14.39
12.8
11.12
9.32
7.24
4.76
1.88
-1.25
-4.37
-7.25
-9.73
-11.83
-13.69
-15.48
-17.36
-19.4
-21.6
-23.94
-26.4
-28.98
-31.57
-33.92
-35.56
-35.95
-34.65
-31.52
-26.86
-21.31
-15.57
-10.15
-5.26
-0.84
3.26
7.12
10.7
13.81
16.31
18.11
19.27
19.92
20.18
20.18
20.02
19.77
19.54
19.4
19.43
19.62
19.89
20.08
19.95
19.32
18.08
16.31
14.19
11.95
9.74
7.66
5.73
3.87
2.03
0.15
-1.8
-3.8
-5.78
-7.62
-9.2
-10.48
-11.53
-12.46
-13.43
-14.58
-16.02
-17.86
-20.23
-23.18
-26.59
-30.01
-32.75
-34.09
-33.49
-30.86
-26.54
-21.19
-15.47
-9.88
-4.67
0.1
4.38
8.08
11.1
13.32
14.73
15.46
15.75
15.89
16.08
16.4
16.76
17.04
17.09
16.88
16.54
16.25
16.18
16.31
16.43
16.17
15.21
13.42
10.97
8.23
5.59
3.37
1.61
0.13
-1.35
-3.02
-4.96
-7.05
-9.11
-10.99
-12.63
-14.12
-15.61
-17.29
-19.33
-21.85
-24.81
-28.02
-31.12
-33.59
-34.92
-34.65
-32.61
-28.92
-23.96
-18.26
-12.37
-6.76
-1.72
2.65
6.4
9.65
12.55
15.11
17.3
19
20.17
20.91
21.39
21.84
22.39
23
23.56
23.9
23.93
23.64
23.07
22.22
21.08
19.57
17.65
15.35
12.78
10.12
7.54
5.23
3.24
1.47
-0.29
-2.33
-4.84
-7.81
-10.96
-13.88
-16.19
-17.75
-18.76
-19.74
-21.27
-23.78
-27.4
-31.85
-36.54
-40.69
-43.59
-44.65
-43.57
-40.37
-35.35
-29.02
-22.02
-14.98
-8.42
-2.66
2.15
6.11
9.36
12.07
14.34
16.23
17.8
19.12
20.32
21.48
22.59
23.57
24.28
24.64
24.65
24.44
24.21
24.11
24.11
24.05
23.66
22.67
20.99
18.76
16.25
13.79
11.65
9.86
8.3
6.75
4.98
2.91
0.54
-2.05
-4.78
-7.59
-10.46
-13.43
-16.52
-19.83
-23.43
-27.38
-31.59
-35.81
-39.57
-42.23
-43.21
-42.11
-38.87
-33.76
-27.34
-20.27
-13.15
-6.45
-0.44
4.75
9.07
12.47
14.95
16.6
17.59
18.18
18.59
18.94
19.21
19.31
19.16
18.79
18.35
18.04
17.97
18.07
18.13
17.89
17.19
16.04
14.57
12.97
11.38
9.82
8.19
6.37
4.3
2.03
-0.34
-2.64
-4.74
-6.61
-8.27
-9.76
-11.12
-12.41
-13.73
-15.27
-17.21
-19.66
-22.46
-25.07
-26.78
-26.89
-25
-21.19
-16
-10.24
-4.62
0.37
4.61
8.15
11.13
13.59
15.46
16.68
17.21
17.16
16.71
16.1
15.51
15.05
14.78
14.68
14.69
14.73
14.69
14.49
14.09
13.48
12.65
11.59
10.27
8.66
6.75
4.64
2.41
0.13
-2.13
-4.39
-6.67
-9
-11.34
-13.69
-16.02
-18.42
-21.05
-24.11
-27.79
-32.1
-36.8
-41.3
-44.79
-46.43
-45.69
-42.45
-37.11
-30.41
-23.15
-15.99
-9.29
-3.14
2.53
7.71
12.37
16.41
19.71
22.23
23.95
24.9
25.12
24.68
23.72
22.43
21.09
19.97
19.22
18.89
18.86
18.93
18.89
18.59
17.96
17.01
15.79
14.3
12.56
10.48
8.06
5.28
2.22
-1.02
-4.28
-7.51
-10.71
-14
-17.56
-21.51
-25.95
-30.79
-35.81
-40.67
-44.9
-48.02
-49.5
-48.94
-46.18
-41.35
-34.86
-27.33
-19.39
-11.58
-4.18
2.73
9.13
15.03
20.31
24.79
28.25
30.5
31.58
31.69
31.23
30.62
30.18
30.05
30.08
30.06
29.78
29.18
28.33
27.39
26.37
25.19
23.64
21.52
18.78
15.49
11.94
8.38
4.99
1.74
-1.48
-4.88
-8.6
-12.6
-16.8
-21.03
-25.22
-29.44
-33.78
-38.3
-42.74
-46.58
-49.08
-49.54
-47.54
-43.06
-36.56
-28.74
-20.38
-12.16
-4.55
2.2
8
12.85
16.83
19.93
22.16
23.52
24.06
23.96
23.52
23.01
22.58
22.22
21.77
21.14
20.3
19.38
18.46
17.5
16.3
14.59
12.25
9.3
6.01
2.64
-0.69
-3.97
-7.29
-10.65
-13.98
-17.13
-20.07
-22.94
-26.11
-29.97
-34.76
-40.35
-46.16
-51.3
-54.72
-55.6
-53.55
-48.75
-41.81
-33.57
-24.8
-16.03
-7.58
0.35
7.57
13.84
18.94
22.74
25.34
26.95
27.85
28.31
28.47
28.41
28.17
27.82
27.43
27.06
26.7
26.34
25.87
25.13
23.93
22.13
19.69
16.63
13.12
9.34
5.49
1.71
-1.98
-5.62
-9.35
-13.35
-17.78
-22.75
-28.22
-33.99
-39.59
-44.41
-47.66
-48.66
-46.92
-42.36
-35.36
-26.64
-17.13
-7.67
1.13
9
15.82
21.54
26.09
29.38
31.38
32.16
31.95
31.01
29.62
27.93
26.05
24.1
22.12
20.18
18.28
16.34
14.18
11.61
8.48
4.73
0.38
-4.48
-9.69
-15.15
-20.81
-26.73
-33.02
-39.81
-47.22
-55.25
-63.81
-72.68
-81.74
-90.93
-100.45
-110.62
-121.78
-134.01
-146.92
-159.66
-171.04
-180.02
-185.97
-188.86
-189.11
-187.21
-183.48
-177.8
-169.75
-158.75
-144.2
-125.66
-102.86
-75.83
-44.95
-11.02
24.79
61.09
96.44
129.53
159.16
184.28
203.98
217.69
225.34
227.47
225.03
219.21
211.09
201.39
190.57
178.92
166.78
154.54
142.67
131.48
121.05
111.28
101.9
92.65
83.34
73.92
64.42
54.96
45.67
36.64
27.93
19.58
11.63
4.05
-3.24
-10.45
-17.84
-25.52
-33.32
-40.68
-46.7
-50.42
-51.12
-48.54
-43
-35.25
-26.21
-16.75
-7.49
1.14
8.95
15.8
21.59
26.21
29.59
31.76
32.86
33.16
33.01
32.74
32.6
32.67
32.92
33.23
33.46
33.51
33.35
33.05
32.64
32.12
31.4
30.32
28.75
26.7
24.3
21.76
19.36
17.19
15.26
13.42
11.51
9.42
7.09
4.55
1.79
-1.18
-4.32
-7.58
-10.81
-13.89
-16.75
-19.47
-22.23
-25.33
-28.96
-33.18
-37.75
-42.12
-45.56
-47.26
-46.67
-43.57
-38.26
-31.34
-23.56
-15.57
-7.81
-0.45
6.45
12.85
18.66
23.75
28
31.39
34.06
36.23
38.15
40
41.8
43.46
44.84
45.93
46.85
47.9
49.36
51.36
53.8
56.34
58.53
59.97
60.35
59.59
57.77
55.12
52
48.82
45.89
43.4
41.23
39.11
36.62
33.42
29.35
24.5
19.23
14.03
9.41
5.74
3.07
1.1
-0.72
-2.96
-6.02
-9.84
-14.08
-18.29
-22.09
-25.42
-28.37
-31.05
-33.39
-35.2
-36.23
-36.37
-35.71
-34.46
-32.79
-30.66
-27.88
-24.13
-19.19
-12.97
-5.55
2.81
11.78
20.95
30
38.68
46.87
54.6
61.95
69
75.78
82.24
88.15
93.14
96.5
97.36
94.88
88.6
78.8
66.5
53.27
40.67
29.83
21.01
13.67
6.69
-1.14
-10.68
-22.14
-34.95
-48.07
-60.25
-70.61
-78.96
-85.78
-91.95
-98.09
-104.08
-108.76
-110.31
-106.79
-97.07
-81.31
-61.04
-38.58
-16.11
4.99
24.52
42.93
60.73
77.88
93.77
107.57
118.53
126.09
129.49
127.34
117.69
98.88
70.76
35.53
-2.49
-38.28
-67.97
-90.31
-106.82
-120.63
-134.8
-150.95
-168.88
-187.18
-204.32
-219.38
-232.14
-242.57
-250.18
-253.81
-252.08
-244.2
-230.68
-213.53
-195.72
-180.11
-168.56
-161.29
-157.24
-154.88
-153.15
-152.03
-152.15
-153.6
-154.82
-152.25
-141.38
-118.89
-84.4
-41.33
4.35
46.43
80.78
106.39
124.8
138.32
148.45
155.29
158.03
156.05
149.8
140.66
130.38
120.2
110.55
101.22
91.76
82.15
72.76
64.48
58.1
54
51.87
50.82
49.69
47.5
43.84
38.9
33.38
28.05
23.55
20.13
17.7
16.07
15.07
14.7
15.04
16.19
18.11
20.7
23.91
27.79
32.58
38.49
45.58
53.61
61.95
69.65
75.63
78.91
78.86
75.47
69.35
61.6
53.51
46.24
40.63
37.03
35.4
35.29
35.97
36.48
35.91
33.66
29.71
24.65
19.42
14.95
11.69
9.57
8.08
6.65
4.93
2.85
0.49
-2.17
-5.32
-9.38
-14.82
-21.97
-30.89
-41.34
-52.86
-64.88
-76.87
-88.38
-99.14
-109.09
-118.57
-128.36
-139.51
-152.7
-167.54
-181.9
-192.04
-193.46
-182.37
-156.91
-117.63
-67.28
-10.05
49.07
104.82
151.98
186
204
205.71
193.78
173.12
149.29
126.73
107.65
92.01
78.57
66.06
54
42.69
32.66
24.01
16.13
8.06
-1.02
-11.12
-21.24
-29.66
-34.47
-34.16
-27.94
-15.79
1.7
23.3
47.23
71.03
91.75
106.46
112.98
110.63
100.42
84.81
66.85
49.24
33.72
20.9
10.6
2.26
-4.8
-11.26
-17.83
-25.05
-33.01
-41.13
-48.14
-52.61
-53.6
-51.1
-46.11
-40.21
-34.91
-31.2
-29.4
-29.3
-30.44
-32.31
-34.35
-36.15
-37.42
-38.2
-38.89
-40.09
-42.42
-46.15
-51.19
-57.1
-63.34
-69.47
-75.15
-79.94
-83.16
-83.92
-81.38
-75.39
-66.7
-57.08
-48.69
-43.3
-41.55
-42.83
-45.6
-48.12
-49.13
-48.04
-44.85
-39.76
-32.92
-24.54
-14.98
-4.92
4.71
13.04
19.58
24.35
27.77
30.42
32.73
34.84
36.65
37.98
38.71
38.99
39.16
39.69
40.97
43.14
46.05
49.26
52.19
54.31
55.24
54.82
53.11
50.35
46.89
43.23
39.84
37.14
35.34
34.4
34.09
34.11
34.17
34.02
33.55
32.7
31.48
29.92
28.03
25.87
23.51
21.13
18.96
17.32
16.43
16.38
17.11
18.42
20.03
21.72
23.26
24.51
25.43
26.03
26.45
26.85
27.31
27.72
27.86
27.47
26.5
25.34
24.64
25.17
27.38
31.08
35.42
39.02
40.42
38.49
32.89
24.19
13.76
3.16
-6.51
-15.25
-24.23
-35.2
-49.62
-67.75
-88.3
-108.81
-126.42
-138.69
-144.14
-142.21
-133.15
-117.7
-97.15
-73.44
-49.24
-27.67
-11.73
-3.61
-3.98
-11.97
-25.27
-41.03
-56.67
-70.48
-81.8
-90.61
-96.99
-100.71
-101.41
-98.86
-93.32
-85.54
-76.33
-66.19
-55.04
-42.36
-27.63
-10.76
7.66
26.48
44.33
59.98
72.59
81.77
87.45
89.81
89.24
86.26
81.59
76.02
70.37
65.25
60.98
57.5
54.39
51.13
47.22
42.39
36.58
30.02
23.1
16.37
10.39
5.6
2.19
-0.02
-1.53
-3.1
-5.35
-8.67
-12.95
-17.68
-22.06
-25.31
-26.91
-26.75
-25.19
-22.93
-20.86
-19.81
-20.37
-22.65
-26.27
-30.48
-34.31
-36.97
-38.02
-37.43
-35.44
-32.38
-28.47
-23.75
-18.28
-12.27
-6.08
-0.16
5.2
9.92
14.2
18.09
21.4
23.65
24.36
23.46
21.49
19.56
18.79
19.81
22.47
25.91
29.08
31.17
31.86
31.3
29.82
27.79
25.53
23.41
21.89
21.35
21.89
23.24
24.7
25.4
24.54
21.59
16.3
8.76
-0.69
-11.5
-22.88
-34.08
-44.38
-53.33
-60.69
-66.34
-70.21
-72.13
-71.98
-69.74
-65.57
-59.7
-52.44
-43.95
-34.25
-23.37
-11.37
1.48
14.66
27.48
39.17
49.09
56.83
62.34
65.76
67.42
67.61
66.55
64.36
61.13
56.87
51.63
45.54
38.83
31.94
25.48
20.13
16.4
14.42
13.83
13.87
13.72
12.7
10.52
7.29
3.43
-0.49
-3.86
-6.15
-7.03
-6.45
-4.62
-2.07
0.6
2.86
4.42
5.34
5.93
6.64
7.79
9.4
11.19
12.73
13.58
13.69
13.32
12.94
12.98
13.57
14.47
15.26
15.59
15.32
14.54
13.38
11.89
9.99
7.58
4.73
1.71
-1.1
-3.47
-5.44
-7.28
-9.38
-11.97
-14.95
-17.91
-20.24
-21.42
-21.19
-19.58
-16.93
-13.67
-10.18
-6.78
-3.61
-0.81
1.48
3.11
3.97
4.1
3.69
3.12
2.76
2.88
3.45
4.3
5.16
5.85
6.35
6.72
7.07
7.39
7.6
7.61
7.45
7.32
7.56
8.49
10.24
12.69
15.38
17.76
19.22
19.33
17.94
15.23
11.64
7.79
4.22
1.3
-0.95
-2.81
-4.72
-7.08
-10.02
-13.29
-16.32
-18.42
-18.99
-17.74
-14.71
-10.32
-5.22
-0.13
4.3
7.64
9.74
10.74
10.94
10.69
10.31
10.02
9.89
9.99
10.32
10.81
11.36
11.89
12.32
12.71
13.14
13.67
14.21
14.52
14.32
13.42
11.81
9.68
7.3
4.91
2.7
0.79
-0.71
-1.66
-1.96
-1.61
-0.72
0.45
1.62
2.57
3.14
3.3
3.07
2.49
1.54
0.15
-1.79
-4.42
-7.79
-11.81
-16.24
-20.67
-24.53
-27.22
-28.2
-27.27
-24.65
-21.03
-17.38
-14.57
-13.08
-12.91
-13.67
-14.85
-16.14
-17.38
-18.43
-19.06
-18.89
-17.64
-15.41
-12.82
-10.81
-10.25
-11.53
-14.36
-17.95
-21.36
-23.91
-25.33
-25.71
-25.37
-24.55
-23.44
-22.1
-20.62
-19.09
-17.67
-16.42
-15.34
-14.27
-13
-11.42
-9.56
-7.63
-5.87
-4.53
-3.66
-3.13
-2.73
-2.18
-1.36
-0.24
1.02
2.22
3.26
4.07
4.75
5.4
6.09
6.8
7.41
7.77
7.76
7.4
6.82
6.21
5.76
5.52
5.41
5.27
4.94
4.39
3.71
3.04
2.53
2.17
1.9
1.51
0.94
0.22
-0.48
-0.96
-1.12
-0.99
-0.72
-0.48
-0.35
-0.31
-0.21
0.01
0.41
0.89
1.33
1.55
1.48
1.1
0.47
-0.28
-1.01
-1.61
-2.05
-2.32
-2.52
-2.72
-2.92
-3
-2.84
-2.31
-1.5
-0.65
-0.06
0.06
-0.31
-0.94
-1.52
-1.72
-1.38
-0.5
0.77
2.14
3.3
3.9
3.74
2.74
1.1
-0.85
-2.75
-4.3
-5.43
-6.28
-7.19
-8.58
-10.84
-14.22
-18.65
-23.77
-28.94
-33.48
-36.96
-39.33
-41
-42.55
-44.4
-46.37
-47.74
-47.37
-44.33
-38.19
-29.33
-18.8
-7.87
2.33
11.23
18.77
25.3
31.27
36.91
42.18
46.83
50.52
53.11
54.77
55.98
57.35
59.4
62.15
65.05
66.99
66.79
63.69
57.63
49.43
40.38
31.73
24.18
17.85
12.4
7.57
3.45
0.43
-1.12
-1.38
-1.15
-1.64
-3.9
-8.29
-14.28
-20.64
-26.07
-29.61
-30.93
-30.3
-28.21
-25.23
-21.85
-18.53
-15.71
-13.87
-13.27
-13.93
-15.57
-17.75
-20.06
-22.24
-24.25
-26.09
-27.83
-29.42
-30.85
-32.25
-33.81
-35.8
-38.31
-41.17
-43.97
-46.19
-47.35
-47.23
-45.82
-43.25
-39.75
-35.54
-30.86
-25.94
-21.06
-16.48
-12.4
-8.89
-5.9
-3.36
-1.16
0.73
2.37
3.79
5.12
6.57
8.39
10.84
14.02
17.91
22.22
26.47
30.06
32.36
32.91
31.53
28.45
24.18
19.42
14.72
10.46
6.76
3.62
1.05
-0.88
-2.07
-2.51
-2.26
-1.4
0.12
2.52
6.03
10.68
16.07
21.34
25.36
27.14
26.16
22.64
17.41
11.74
6.91
3.86
2.96
3.94
6.04
8.29
9.8
10.03
8.72
5.95
1.89
-3.06
-8.27
-12.92
-16.16
-17.42
-16.73
-14.79
-12.69
-11.51
-11.88
-13.73
-16.5
-19.37
-21.72
-23.22
-23.8
-23.5
-22.32
-20.17
-16.92
-12.64
-7.67
-2.63
1.83
5.36
8.17
11.04
15.01
20.88
28.54
36.96
44.42
49.22
50.35
47.78
42.36
35.35
28.08
21.51
16.24
12.52
10.17
8.69
7.27
5.14
1.86
-2.44
-7.12
-11.29
-14.22
-15.57
-15.36
-13.86
-11.35
-8.14
-4.58
-1.07
1.95
4.16
5.46
6.02
6.19
6.32
6.6
6.99
7.28
7.23
6.74
5.83
4.77
3.82
3.31
3.42
4.23
5.63
7.35
9.08
10.51
11.48
11.96
12.03
11.84
11.48
10.97
10.29
9.41
8.34
7.08
5.67
4.15
2.6
1.09
-0.31
-1.59
-2.79
-4.01
-5.37
-6.93
-8.76
-10.88
-13.25
-15.83
-18.51
-21.15
-23.64
-25.89
-27.87
-29.5
-30.59
-30.82
-29.83
-27.4
-23.58
-18.69
-13.23
-7.66
-2.38
2.41
6.61
10.24
13.38
16.13
18.53
20.43
21.53
21.44
19.83
16.66
12.3
7.42
2.8
-0.89
-3.27
-4.31
-4.25
-3.47
-2.33
-1.13
-0.03
0.88
1.61
2.17
2.62
2.95
3.17
3.27
3.2
2.93
2.46
1.84
1.1
0.31
-0.54
-1.41
-2.2
-2.75
-2.82
-2.26
-1.08
0.45
1.93
2.98
3.33
3.02
2.21
1.27
0.58
0.44
1.05
2.36
4.08
5.7
6.78
7
6.44
5.43
4.31
3.23
2.13
0.87
-0.53
-1.68
-2.08
-1.35
0.49
2.87
4.99
6.18
6.24
5.43
4.34
3.5
3.17
3.33
3.82
4.43
5.05
5.69
6.41
7.21
8.09
9.01
9.98
11.03
12.25
13.71
15.37
17.09
18.63
19.78
20.42
20.7
20.9
21.34
22.27
23.67
25.34
26.89
28.02
28.49
28.29
27.48
26.21
24.62
22.82
20.96
19.2
17.72
16.56
15.62
14.6
13.11
10.92
7.97
4.59
1.16
-1.86
-4.23
-5.81
-6.52
-6.26
-5.02
-2.94
-0.43
1.77
2.92
2.38
-0.05
-4.14
-9.24
-14.33
-18.34
-20.3
-19.7
-16.65
-11.91
-6.7
-2.19
0.76
1.97
1.81
1.13
0.89
1.83
4.36
8.44
13.62
19.14
24.18
27.87
29.45
28.3
23.98
16.52
6.51
-4.79
-15.72
-24.65
-30.54
-33.23
-33.36
-31.97
-30.02
-28.2
-26.81
-26.1
-26.28
-27.45
-29.5
-31.83
-33.65
-34.27
-33.5
-31.88
-30.45
-30.31
-32.06
-35.54
-39.81
-43.54
-45.47
-44.91
-41.98
-37.44
-32.52
-28.34
-25.72
-24.78
-25.01
-25.42
-24.85
-22.35
-17.57
-10.98
-3.69
2.79
7.19
8.8
7.69
4.58
0.43
-3.77
-7.23
-9.37
-9.89
-8.88
-6.89
-4.82
-3.65
-3.96
-5.63
-7.9
-9.69
-10.19
-9.22
-7.3
-5.31
-4.11
-4.19
-5.61
-8.29
-12.23
-17.59
-24.49
-32.75
-41.64
-50.02
-56.7
-60.86
-62.29
-61.22
-57.91
-52.29
-43.97
-32.46
-17.76
-0.74
16.9
32.96
45.35
52.8
55.06
52.98
48.06
41.92
35.79
30.27
25.38
20.87
16.53
12.41
8.86
6.33
5.24
5.82
8.11
11.9
16.71
21.91
26.79
30.77
33.57
35.27
36.26
37.13
38.46
40.73
44.19
48.8
54.18
59.74
64.76
68.61
70.85
71.21
69.36
64.87
57.24
46.24
32.29
16.69
1.38
-11.58
-20.62
-25.12
-25.5
-22.89
-18.76
-14.4
-10.82
-8.49
-7.55
-7.76
-8.67
-9.71
-10.32
-10.11
-8.92
-6.94
-4.74
-3.31
-3.84
-7.34
-14.29
-24.27
-36.08
-47.97
-58.24
-65.63
-69.54
-70
-67.36
-62.13
-54.76
-45.8
-35.83
-25.57
-15.72
-6.84
0.8
7.28
12.91
18.12
23.09
27.73
31.6
34.13
34.99
34.22
32.35
30.05
28.09
26.94
26.8
27.58
28.89
30.25
31.13
31.12
30.02
27.97
25.27
22.31
19.39
16.6
13.97
11.52
9.42
7.97
7.39
7.7
8.66
9.9
10.99
11.63
11.73
11.23
10.13
8.39
6.08
3.37
0.62
-1.89
-4
-5.88
-7.91
-10.45
-13.68
-17.51
-21.71
-26.01
-30.16
-33.86
-36.72
-38.25
-37.95
-35.67
-31.59
-26.34
-20.54
-14.71
-8.98
-3.2
2.78
8.96
15
20.41
24.62
27.25
28.23
27.69
25.91
23.16
19.65
15.6
11.31
7.23
3.82
1.28
-0.7
-2.83
-5.97
-10.54
-16.21
-21.9
-26.18
-28.02
-27.12
-24.11
-20.09
-16.13
-12.88
-10.53
-8.96
-8.04
-7.8
-8.39
-9.96
-12.44
-15.5
-18.56
-21
-22.32
-22.39
-21.46
-20.18
-19.15
-18.69
-18.54
-17.89
-15.73
-11.24
-4.25
4.69
14.53
24.06
32.33
38.87
43.71
47.15
49.58
51.3
52.45
53.02
52.84
51.66
49.2
45.21
39.65
32.74
25.03
17.23
10.02
3.87
-1.15
-5.18
-8.52
-11.29
-13.48
-14.95
-15.71
-16.01
-16.23
-16.7
-17.44
-18.03
-17.83
-16.36
-13.67
-10.38
-7.5
-5.9
-5.87
-7.02
-8.49
-9.38
-9.2
-7.92
-5.85
-3.26
-0.12
3.81
8.71
14.41
20.16
24.96
27.9
28.65
27.56
25.51
23.39
21.74
20.51
19.27
17.45
14.65
10.67
5.49
-0.78
-7.89
-15.38
-22.46
-28.25
-31.99
-33.41
-32.82
-31.05
-29.02
-27.52
-26.82
-26.65
-26.41
-25.41
-23.19
-19.7
-15.41
-11.13
-7.76
-6.02
-6.2
-8.11
-11.2
-14.75
-18.06
-20.62
-22.11
-22.42
-21.53
-19.42
-16.16
-11.94
-7.17
-2.4
1.7
4.7
6.51
7.4
7.88
8.3
8.8
9.24
9.34
8.89
7.89
6.38
4.4
1.93
-1.1
-4.63
-8.36
-11.84
-14.64
-16.51
-17.57
-18.24
-18.94
-19.89
-20.94
-21.64
-21.52
-20.28
-18.02
-15.07
-11.87
-8.63
-5.31
-1.65
2.64
7.59
12.99
18.34
23.11
26.86
29.37
30.64
30.77
29.85
27.79
24.48
19.82
14.04
7.73
1.7
-3.28
-6.83
-8.99
-10.18
-10.86
-11.28
-11.59
-11.84
-12.14
-12.73
-13.69
-14.89
-15.99
-16.59
-16.58
-16.09
-15.47
-14.93
-14.4
-13.66
-12.48
-10.91
-9.35
-8.29
-8.07
-8.66
-9.7
-10.61
-10.97
-10.55
-9.31
-7.4
-4.95
-2.09
1
4.01
6.48
7.9
7.96
6.7
4.71
3.04
2.87
5.1
10.01
17.06
25.1
32.75
38.93
43.09
45.21
45.6
44.56
42.42
39.44
35.95
32.27
28.4
23.74
17.16
7.36
-6.29
-23.19
-41.41
-58.33
-71.65
-80.28
-84.55
-85.66
-84.73
-82.1
-77.12
-68.82
-56.74
-41.56
-25.12
-9.77
2.59
11.22
16.69
20.48
24.15
28.64
33.82
38.76
42.23
43.33
41.85
38.26
33.43
28.14
22.93
17.97
13.34
9.21
5.94
3.94
3.5
4.46
6.23
7.93
8.78
8.39
6.87
4.62
2.08
-0.66
-3.87
-8
-13.4
-20
-27.26
-34.25
-40
-43.86
-45.69
-46.07
-46.02
-46.67
-48.77
-52.37
-56.64
-60.11
-61.29
-59.23
-53.99
-46.61
-38.68
-31.65
-26.3
-22.4
-18.97
-14.75
-8.76
-0.64
9.26
20.21
31.44
42.29
52.29
61.01
68.09
73.16
75.96
76.45
74.87
71.72
67.72
63.74
60.51
58.49
57.61
57.23
56.36
54.08
50.09
44.89
39.83
36.57
36.54
40.48
48.07
58.07
68.5
77.21
82.33
82.84
78.77
71.14
61.53
51.54
42.34
34.46
27.95
22.55
17.81
13.19
8.11
2.03
-5.22
-13.31
-21.43
-28.63
-34.26
-38.31
-41.38
-44.33
-47.84
-52.04
-56.58
-60.93
-64.69
-67.69
-70.05
-71.81
-72.89
-73.17
-72.67
-71.7
-70.78
-70.41
-70.55
-70.58
-69.31
-65.52
-58.48
-48.32
-36.02
-22.94
-10.27
1.46
12.28
22.62
32.76
42.51
51.34
58.55
63.75
67
68.7
69.3
68.98
67.46
64.24
58.91
51.48
42.47
32.81
23.61
15.76
9.81
5.73
2.97
0.6
-2.63
-7.94
-16.25
-27.86
-42.1
-57.35
-71.29
-81.56
-86.39
-85.35
-79.3
-70.2
-60.32
-51.61
-45.34
-42.14
-42.03
-44.45
-48.02
-50.47
-49.09
-41.67
-27.53
-8.13
13.25
32.76
47.38
55.95
59.33
59.82
59.99
61.83
66.28
73.14
81.42
89.72
96.55
100.3
99.16
91.26
75.23
51.05
20.94
-10.64
-38.14
-56.74
-64.18
-61.37
-51.74
-39.4
-27.56
-17.73
-10.05
-4.24
-0.32
1.33
0.49
-2.47
-6.46
-10.08
-12.16
-12.13
-10.22
-7.16
-4.04
-1.76
-0.79
-1.06
-1.93
-2.59
-2.46
-1.45
0.06
1.48
2.4
2.82
3.07
3.54
4.41
5.57
6.67
7.43
7.78
7.92
8.07
8.4
8.88
9.35
9.67
9.82
10
10.42
11.22
12.34
13.55
14.53
15.04
15.02
14.54
13.77
12.86
11.91
10.93
9.96
9.04
8.23
7.59
7.16
6.92
6.8
6.72
6.66
6.63
6.73
7.13
7.99
9.44
11.42
13.74
16.08
18.08
19.44
20.01
19.78
18.91
17.66
16.37
15.39
14.96
15.16
15.82
16.61
17.18
17.34
17.13
16.85
16.91
17.61
19.06
21.08
23.27
25.09
26.02
25.66
23.88
20.83
17.01
13.18
10.13
8.45
8.37
9.57
11.45
13.26
14.5
14.95
14.68
13.78
12.19
9.71
6.21
1.85
-2.78
-6.91
-9.92
-11.8
-13.07
-14.55
-16.81
-19.82
-22.94
-25.29
-26.28
-25.99
-25.16
-24.83
-25.98
-29.13
-34.28
-41.06
-48.7
-56.14
-62.07
-65.21
-64.62
-60.22
-53.04
-45.07
-38.66
-35.55
-36.06
-38.69
-40.65
-39.05
-32.35
-21.27
-8.62
2.01
8.08
9.38
8.13
7.7
10.84
18.18
27.99
37.18
42.66
42.61
36.75
26.02
11.82
-4.39
-21.49
-38.59
-55
-70.07
-83.11
-93.29
-99.72
-101.72
-99.12
-92.42
-82.77
-71.71
-60.86
-51.66
-45.33
-42.66
-43.71
-47.59
-52.41
-55.77
-55.57
-50.88
-42.24
-31.25
-19.79
-9.15
0.26
8.68
16.37
23.32
29.14
33.41
36.12
37.92
39.84
42.98
47.95
54.63
62.16
69.24
74.48
76.77
75.45
70.43
62.24
52
41.23
31.54
24.21
19.78
17.95
17.68
17.66
16.92
15.19
12.96
11.15
10.5
11.1
12.36
13.18
12.59
10.24
6.58
2.73
0.09
-0.11
2.87
9.18
18.35
29.3
40.6
50.71
58.53
63.64
66.48
68.02
69.36
71.18
73.47
75.61
76.68
75.93
73.02
68.06
61.59
54.41
47.55
42.23
39.7
40.82
45.54
52.56
59.55
63.67
62.7
55.79
43.87
29.26
14.67
2.12
-7.75
-15.74
-23.6
-33.05
-45.04
-59.34
-74.52
-88.63
-99.78
-106.68
-108.93
-106.93
-101.65
-94.5
-87.04
-80.7
-76.35
-73.86
-72.01
-68.9
-62.81
-53.09
-40.68
-27.75
-16.78
-9.42
-5.88
-4.99
-5.03
-4.56
-3.03
-0.84
1.08
1.85
1.04
-1.16
-4.09
-6.98
-9.38
-11.43
-13.81
-17.49
-23.16
-30.78
-39.44
-47.58
-53.54
-56.09
-54.99
-51.02
-45.75
-41.03
-38.18
-37.68
-39.05
-41.33
-43.58
-45.44
-47.06
-48.75
-50.43
-51.34
-50.35
-46.6
-40.04
-31.61
-22.66
-14.27
-6.71
0.53
8.28
17.03
26.58
36.16
44.72
51.37
55.56
57.19
56.41
53.68
49.63
45
40.52
36.71
33.86
31.9
30.59
29.53
28.33
26.59
24.02
20.47
16.01
10.96
5.83
1.14
-2.81
-6.08
-9.1
-12.51
-16.84
-22.2
-28.16
-33.9
-38.35
-40.64
-40.29
-37.24
-31.84
-24.64
-16.34
-7.59
0.99
8.92
15.8
21.46
25.96
29.62
33.01
36.76
41.4
47.09
53.47
59.64
64.52
67.24
67.57
66.09
63.85
62
61.11
61.01
60.82
59.44
56
50.1
41.83
31.5
19.48
6.24
-7.6
-21.22
-33.74
-44.43
-52.92
-59.03
-62.7
-63.89
-62.74
-59.79
-56.11
-53
-51.5
-51.82
-53.23
-54.46
-54.34
-52.31
-48.43
-43.08
-36.62
-29.11
-20.62
-11.43
-2.26
5.8
11.67
14.72
15.03
13.44
11.23
9.74
9.74
11.33
13.89
16.52
18.45
19.47
19.81
19.93
20.11
20.22
19.87
18.68
16.68
14.3
12.21
10.96
10.64
10.94
11.33
11.43
11.13
10.68
10.35
10.33
10.56
10.88
11.15
11.34
11.56
11.85
12.16
12.29
12.07
11.44
10.54
9.65
9.06
8.82
8.8
8.77
8.54
8.09
7.55
7.04
6.58
6.09
5.41
4.48
3.35
2.2
1.23
0.59
0.28
0.23
0.3
0.38
0.43
0.44
0.46
0.5
0.58
0.68
0.72
0.72
0.65
0.56
0.53
0.56
0.69
0.86
1.05
1.23
1.43
1.71
2.19
2.97
4.04
5.29
6.47
7.33
7.71
7.68
7.48
7.47
7.79
8.4
9.04
9.45
9.52
9.39
9.33
9.57
10.18
11.05
12
12.91
13.73
14.52
15.29
15.97
16.4
16.47
16.11
15.38
14.54
13.87
13.66
14.11
15.27
17.03
19.17
21.47
23.71
25.82
27.68
29.29
30.66
31.87
33.07
34.38
35.92
37.63
39.26
40.46
40.9
40.39
38.98
36.93
34.58
32.26
30.09
28.06
25.93
23.54
20.78
17.72
14.65
11.93
9.85
8.46
7.59
6.88
5.92
4.36
1.95
-1.46
-6.09
-12.05
-19.32
-27.55
-36.15
-44.35
-51.52
-57.43
-62.25
-66.48
-70.59
-74.71
-78.54
-81.41
-82.6
-81.6
-78.46
-73.71
-68.32
-63.31
-59.52
-57.35
-56.74
-57.26
-58.25
-59.09
-59.22
-58.34
-56.45
-53.82
-51.02
-48.72
-47.45
-47.42
-48.35
-49.5
-49.87
-48.32
-43.96
-36.29
-25.39
-11.94
2.87
17.53
30.52
40.66
47.28
50.49
50.94
49.7
47.84
46.11
44.87
44.01
43.3
42.42
41.22
39.68
37.86
35.88
33.92
32.21
31.05
30.7
31.13
31.96
32.39
31.46
28.42
23
15.68
7.39
-0.77
-7.94
-13.81
-18.58
-22.67
-26.4
-29.73
-32.33
-33.75
-33.68
-32.15
-29.55
-26.48
-23.6
-21.42
-20.24
-20.09
-20.72
-21.8
-22.94
-23.95
-24.75
-25.45
-26.12
-26.83
-27.48
-28.04
-28.51
-29.11
-30.03
-31.37
-32.9
-34.16
-34.57
-33.71
-31.55
-28.44
-24.95
-21.51
-18.17
-14.52
-9.74
-3.03
6.17
17.76
31.08
45.07
58.69
71.17
82.17
91.71
99.86
106.54
111.39
113.94
113.81
110.92
105.54
98.13
89.1
78.74
67.34
55.28
43.15
31.56
20.87
10.91
1.12
-9.12
-20.05
-31.26
-41.88
-51.03
-58.31
-63.99
-68.83
-73.52
-78.25
-82.39
-84.75
-84.04
-79.41
-70.84
-59.17
-45.84
-32.41
-20.19
-9.91
-1.78
4.45
9.31
13.45
17.61
22.3
27.66
33.13
37.72
40.36
40.46
38.27
34.73
31.12
28.46
27.18
27.05
27.57
27.99
27.44
24.9
19.34
10.15
-2.36
-16.55
-29.84
-39.45
-43.52
-41.91
-36.11
-28.61
-21.76
-16.93
-14.24
-12.94
-12.03
-10.85
-9.36
-7.78
-6.4
-5.22
-4.01
-2.49
-0.57
1.57
3.5
4.77
5.23
5.01
4.54
4.35
4.84
6.01
7.58
9.11
10.17
10.65
10.65
10.47
10.29
10.18
9.96
9.4
8.34
6.75
4.78
2.63
0.51
-1.42
-3.04
-4.33
-5.23
-5.8
-6.14
-6.44
-6.95
-7.9
-9.37
-11.22
-13.18
-14.9
-16.12
-16.76
-16.87
-16.54
-15.84
-14.72
-13.12
-11.13
-8.93
-6.85
-5.22
-4.19
-3.75
-3.74
-3.96
-4.25
-4.5
-4.64
-4.65
-4.52
-4.26
-3.83
-3.23
-2.41
-1.36
-0.1
1.29
2.69
3.95
5.01
5.9
6.7
7.57
8.58
9.69
10.71
11.41
11.56
11.13
10.27
9.2
8.14
7.18
6.27
5.36
4.53
3.96
3.92
4.5
5.63
7
8.24
9.15
9.7
10.08
10.46
10.95
11.5
12.02
12.44
12.82
13.3
14.05
15.05
16.22
17.3
18.09
18.47
18.53
18.51
18.74
19.58
21.21
23.64
26.67
29.93
33.01
35.54
37.32
38.29
38.58
38.23
37.14
34.96
31.22
25.49
17.72
8.28
-2.04
-12.26
-21.44
-28.88
-34.19
-37.33
-38.51
-38.19
-37.04
-35.75
-34.83
-34.48
-34.44
-34.2
-33.3
-31.54
-29.11
-26.52
-24.27
-22.68
-21.71
-21.11
-20.42
-19.3
-17.57
-15.29
-12.78
-10.42
-8.62
-7.64
-7.51
-8.05
-8.97
-10.03
-11.13
-12.37
-13.83
-15.52
-17.18
-18.38
-18.6
-17.58
-15.41
-12.63
-9.91
-7.81
-6.54
-5.94
-5.69
-5.51
-5.36
-5.37
-5.61
-6.03
-6.33
-6.22
-5.54
-4.4
-3.15
-2.17
-1.64
-1.55
-1.7
-1.9
-2.02
-2.02
-1.92
-1.73
-1.4
-0.9
-0.28
0.27
0.48
0.07
-1.14
-3.14
-5.7
-8.45
-10.99
-13
-14.26
-14.75
-14.58
-14.06
-13.46
-12.92
-12.27
-10.97
-8.15
-2.92
5.37
16.7
30.3
44.68
57.92
68.1
73.69
74
69.25
60.5
49.33
37.45
26.32
16.92
9.8
5.1
2.71
2.36
3.63
6.03
9.08
12.3
15.35
17.91
19.71
20.58
20.4
19.27
17.43
15.21
13
11.09
9.67
8.82
8.5
8.43
8.17
7.17
4.93
1.28
-3.52
-8.76
-13.53
-17.01
-18.72
-18.7
-17.31
-15.09
-12.56
-10.07
-7.8
-5.81
-4.11
-2.7
-1.49
-0.36
0.96
2.7
4.99
7.82
10.99
14.32
17.63
20.8
23.71
26.19
27.98
28.88
28.85
28.1
26.93
25.7
24.51
23.35
22.01
20.32
18.19
15.74
13.14
10.67
8.66
7.41
7.09
7.51
8.02
7.58
5.15
0.15
-7.15
-15.69
-24.04
-30.87
-35.48
-37.88
-38.62
-38.41
-37.9
-37.51
-37.58
-38.33
-39.97
-42.61
-46.3
-50.99
-56.7
-63.44
-71.04
-78.85
-85.42
-88.49
-85.41
-74.02
-53.65
-25.73
6.3
37.96
65.06
84.82
96.32
100.08
97.31
89.1
76.18
59.13
38.84
16.71
-5.31
-25.08
-40.75
-51.03
-55.4
-54.14
-48.2
-39.06
-28.53
-18.52
-10.8
-6.73
-6.99
-11.49
-19.34
-29.02
-38.71
-46.67
-51.61
-52.82
-50.33
-44.77
-37.37
-29.64
-23.04
-18.46
-15.94
-14.68
-13.38
-10.95
-7.05
-2.19
2.63
6.53
9.25
11.26
13.32
15.97
19.11
22.11
24.13
24.49
22.86
19.15
13.42
5.81
-3.25
-12.95
-22.09
-29.53
-34.53
-37.07
-37.79
-37.47
-36.48
-34.45
-30.45
-23.62
-13.81
-2.03
9.88
19.83
26.39
29.08
28.56
26.11
23.21
21.05
20.38
21.46
24.16
28.08
32.56
36.91
40.43
42.57
43.05
41.82
39.11
35.34
31.09
26.99
23.62
21.36
20.35
20.48
21.4
22.57
23.36
23.15
21.4
17.86
12.61
5.97
-1.55
-9.39
-17
-23.87
-29.54
-33.74
-36.31
-37.25
-36.68
-34.74
-31.65
-27.82
-23.82
-20.36
-18.04
-17.06
-17.11
-17.52
-17.57
-16.86
-15.47
-13.83
-12.38
-11.29
-10.41
-9.36
-7.77
-5.46
-2.53
0.77
4.16
7.41
10.45
13.26
15.84
18.07
19.75
20.66
20.71
20.07
19.08
18.2
17.72
17.73
18.13
18.63
18.94
18.8
18.04
16.57
14.48
12.02
9.63
7.75
6.69
6.51
6.98
7.84
8.84
9.98
11.33
12.81
14.19
15
14.81
13.39
10.86
7.55
3.83
-0.07
-4.07
-8.05
-11.72
-14.52
-15.89
-15.58
-13.94
-11.95
-10.87
-11.74
-14.79
-19.43
-24.32
-28.05
-29.62
-28.8
-26.03
-22.13
-18.01
-14.23
-11.12
-8.76
-7.18
-6.41
-6.46
-7.2
-8.26
-9.21
-9.5
-8.79
-6.96
-4.22
-1.05
2
4.43
6
6.71
6.86
6.84
7.15
8.22
10.4
13.86
18.51
23.91
29.33
33.96
37.06
38.25
37.63
35.61
32.8
29.67
26.49
23.32
20.14
17.06
14.27
11.93
10.02
8.26
6.25
3.68
0.63
-2.39
-4.61
-5.34
-4.31
-1.81
1.47
4.69
7.24
8.83
9.51
9.48
8.99
8.24
7.38
6.52
5.73
4.98
4.28
3.54
2.75
1.87
0.91
-0.1
-1.15
-2.15
-3.07
-3.84
-4.46
-4.85
-4.97
-4.69
-3.89
-2.43
-0.27
2.52
5.7
8.93
11.83
14.12
15.65
16.54
17.08
17.65
18.49
19.67
21.02
22.17
22.82
22.77
22.17
21.27
20.42
19.78
19.3
18.73
17.72
16.02
13.64
10.9
8.34
6.64
6.28
7.4
9.63
12.19
14.15
14.68
13.45
10.74
7.43
4.83
4.19
6.37
11.48
18.82
27.07
34.63
40.14
42.77
42.56
40.32
37.58
35.86
36
37.38
37.78
34.07
23.62
5.82
-17.33
-41.76
-63.11
-78.46
-87.25
-90.8
-90.81
-88.13
-82.37
-72.85
-59.77
-45.1
-32.03
-23.68
-21.6
-25
-31.38
-37.75
-42
-43.64
-43.46
-42.73
-42.16
-41.64
-40.45
-38.13
-35
-32.23
-31.37
-33.46
-38.47
-45.32
-52.42
-58.46
-62.93
-66.18
-69.05
-72.27
-76.16
-80.49
-84.76
-88.43
-90.93
-91.85
-90.74
-87.16
-80.88
-71.96
-60.86
-48.42
-35.71
-23.68
-13.08
-4.37
2.23
6.5
8.21
7.15
3.39
-2.55
-9.55
-16.16
-20.95
-22.88
-21.52
-17.08
-10.16
-1.61
7.67
16.76
24.89
31.56
36.76
40.88
44.62
48.6
53.07
57.86
62.42
66.18
68.7
69.8
69.52
68.04
65.6
62.44
58.82
54.95
50.99
46.97
42.8
38.31
33.29
27.64
21.42
15
8.96
3.96
0.5
-1.24
-1.49
-0.82
0.18
1.12
1.9
2.63
3.43
4.29
4.97
5.27
5.08
4.59
4.21
4.37
5.28
6.83
8.58
9.99
10.66
10.4
9.51
8.57
8.46
10.02
13.79
19.74
27.1
34.55
40.56
43.95
44.21
41.66
37.23
32
26.86
22.29
18.49
15.46
13.23
11.82
11.15
10.98
10.93
10.61
9.82
8.64
7.43
6.71
6.87
7.99
9.79
11.7
13.18
13.93
14.05
13.88
13.82
14.12
14.72
15.42
16.02
16.51
17
17.72
18.68
19.71
20.46
20.65
20.21
19.24
17.98
16.54
14.86
12.76
10.14
7.17
4.2
1.68
-0.19
-1.47
-2.44
-3.36
-4.21
-4.62
-4.14
-2.51
0.21
3.62
7.3
11.12
15.44
21.1
29.16
40.59
55.83
74.5
95.21
115.71
133.31
145.52
150.55
147.48
136.36
118.11
94.55
68.25
41.96
17.78
-3.81
-24.27
-46.38
-72.68
-103.95
-138.42
-172.17
-200.65
-220.2
-228.84
-226.17
-212.9
-190.53
-161.36
-128.67
-96.55
-69
-48.89
-37.14
-32.67
-33.06
-35.37
-37.05
-36.38
-32.59
-25.9
-17.4
-8.71
-1.5
3.17
5.13
5.23
4.82
5.12
6.7
9.31
12.13
14.2
14.91
14.22
12.62
10.91
9.88
10.11
11.67
14.25
17.22
19.93
21.89
22.91
23.05
22.51
21.51
20.26
18.94
17.65
16.51
15.52
14.57
13.53
12.29
10.9
9.59
8.66
8.41
8.98
10.26
11.96
13.66
14.97
15.59
15.42
14.54
13.18
11.65
10.3
9.41
9.19
9.6
10.48
11.46
12.17
12.33
11.91
11.01
9.8
8.44
6.94
5.31
3.61
1.94
0.44
-0.84
-1.9
-2.76
-3.42
-3.91
-4.34
-4.93
-5.99
-7.69
-9.91
-12.23
-14.11
-15.11
-15.11
-14.3
-13.1
-11.93
-11.08
-10.76
-11.03
-11.88
-13.06
-14.27
-15.17
-15.55
-15.35
-14.7
-13.73
-12.56
-11.28
-9.88
-8.37
-6.85
-5.4
-4.17
-3.29
-2.8
-2.64
-2.66
-2.6
-2.22
-1.37
0
1.72
3.54
5.16
6.3
6.77
6.52
5.73
4.7
3.8
3.2
2.87
2.45
1.59
0.14
-1.76
-3.65
-5.01
-5.56
-5.38
-4.8
-4.19
-3.75
-3.49
-3.33
-3.28
-3.47
-4.11
-5.23
-6.57
-7.58
-7.65
-6.36
-3.73
-0.21
3.47
6.58
8.72
9.88
10.32
10.39
10.36
10.23
9.88
9.2
8.21
7.12
6.17
5.54
5.19
4.95
4.61
4.07
3.37
2.61
1.89
1.23
0.62
0.13
-0.14
-0.06
0.42
1.18
1.92
2.36
2.22
1.45
0.16
-1.39
-2.93
-4.22
-5.13
-5.71
-6.07
-6.44
-7.03
-7.93
-9.05
-10.1
-10.68
-10.4
-9.04
-6.59
-3.34
0.24
3.66
6.48
8.49
9.64
9.97
9.56
8.5
6.89
4.99
3.1
1.58
0.7
0.5
0.8
1.25
1.56
1.57
1.33
1.04
0.92
1.06
1.38
1.69
1.75
1.4
0.65
-0.37
-1.46
-2.5
-3.45
-4.37
-5.31
-6.25
-7.07
-7.6
-7.69
-7.33
-6.6
-5.63
-4.63
-3.8
-3.36
-3.42
-3.95
-4.62
-4.86
-4.03
-1.72
2.09
6.83
11.71
15.95
19.18
21.54
23.62
26.09
29.38
33.44
37.75
41.54
44.1
45.14
44.88
44.01
43.48
44.24
46.97
51.87
58.31
64.72
68.72
67.55
59.06
42.56
19.43
-7.09
-32.77
-53.69
-67.28
-72.8
-71.15
-64.25
-54.27
-43.17
-32.53
-23.53
-16.97
-13.37
-12.9
-15.45
-20.65
-27.83
-36.22
-44.84
-52.8
-59.33
-63.95
-66.45
-66.91
-65.64
-63.11
-60.07
-57.32
-55.74
-55.99
-58.29
-62.22
-66.6
-69.66
-69.4
-64.12
-53.05
-36.86
-17.82
0.81
15.99
26.09
31.67
35.18
39.52
46.52
55.77
64.59
69.24
66.37
54.25
33.32
5.93
-24.21
-52.6
-74.47
-85.57
-83.23
-67.58
-42.19
-13.8
9.24
19.55
13.32
-7.83
-36.74
-62.35
-73.19
-61.36
-25.91
25.94
80.53
122.05
137.89
123.06
81.73
25.2
-32.57
-79.75
-109.69
-121.03
-115.84
-97.26
-68.15
-31.19
10
50.28
83.73
105.43
113.5
109.92
99.98
90.01
84.9
86.27
92.31
98.97
102.06
99.14
90.47
78.58
66.84
57.84
52.29
49.21
46.8
43.68
39.63
35.51
32.56
31.65
32.79
35.24
37.99
40.24
41.53
41.64
40.39
37.43
32.36
24.97
15.45
4.59
-6.39
-16.15
-23.62
-28.33
-30.46
-30.72
-30.06
-29.26
-28.8
-28.79
-29.26
-30.32
-32.21
-35.18
-39.17
-43.67
-47.8
-50.63
-51.64
-50.91
-49.16
-47.33
-46.23
-46.13
-46.83
-47.91
-49
-49.97
-50.84
-51.65
-52.28
-52.65
-52.87
-53.41
-55.02
-58.35
-63.53
-70
-76.72
-82.61
-87.02
-90.06
-92.45
-95.06
-98.33
-101.9
-104.41
-103.83
-98.01
-85.42
-65.76
-40.47
-12.67
13.45
33.57
44.48
44.7
34.91
17.83
-2.37
-20.94
-33.64
-37.75
-32.84
-20.74
-4.82
11.33
25.09
35.46
42.7
47.42
49.89
50
47.83
44.37
41.74
42.45
48.08
58.45
71.47
84.09
93.35
97.57
96.48
90.86
81.9
70.73
58.39
45.97
34.61
25.27
18.46
14.15
11.85
11
11.07
11.54
11.76
11.04
8.93
5.73
2.64
1.3
2.95
7.56
13.75
19.44
23.02
24.19
24.07
24.3
25.97
28.89
31.78
33.05
31.86
28.67
25.04
22.88
23.73
28.25
36.35
47.39
60.39
74.05
86.4
94.9
96.89
90.49
75.5
53.82
29.02
5.24
-14.06
-26.91
-33.02
-33.4
-29.72
-23.95
-18.02
-13.67
-12.13
-13.7
-17.64
-22.45
-26.47
-28.56
-28.54
-27.09
-25.38
-24.68
-25.92
-29.63
-35.72
-43.53
-51.73
-58.61
-62.59
-62.84
-59.72
-54.71
-49.9
-47.21
-47.75
-51.66
-58.27
-66.49
-75.32
-84.03
-92.36
-100.42
-108.59
-117.15
-125.95
-134.3
-141.06
-144.94
-144.71
-139.33
-127.83
-109.61
-84.91
-55.49
-24.74
3.05
24.03
36.38
40.92
40.56
38.83
38.34
39.91
42.92
46.4
49.95
54.18
60.04
68
77.37
86.32
92.58
94.46
91.66
85.54
78.63
73.67
72.41
74.94
79.77
84.62
87.5
87.78
86.23
84.73
85.2
88.74
95.24
103.48
111.73
118.41
122.55
123.82
122.56
119.52
115.78
112.5
110.69
110.83
112.5
114.37
114.59
111.45
103.97
92.12
76.53
57.96
36.92
13.82
-10.61
-34.93
-57.1
-75.07
-87.62
-94.85
-97.94
-98.39
-97.25
-94.97
-92
-89.42
-89.4
-94.46
-106.14
-123.99
-145.13
-165.17
-179.73
-186
-183.5
-173.89
-159.98
-144.54
-129.57
-115.99
-103.94
-93.24
-83.66
-75.02
-67.04
-59.26
-51
-41.56
-30.66
-18.66
-6.53
4.46
13.31
19.68
24.07
27.63
31.75
37.58
45.68
55.8
67.06
78.28
88.38
96.67
102.92
107.11
109.28
109.37
107.39
103.59
98.63
93.42
88.82
85.32
82.8
80.67
78.18
74.73
70.19
64.88
59.33
53.97
48.83
43.6
37.84
31.36
24.43
17.75
12.04
7.72
4.67
2.34
0.16
-2.15
-4.4
-6.05
-6.59
-5.83
-4.06
-1.91
-0.17
0.55
-0.03
-1.78
-4.33
-7.25
-10.28
-13.53
-17.29
-21.82
-27.2
-33.17
-39.29
-45.08
-50.13
-54.11
-56.77
-57.86
-57.25
-55.05
-51.73
-47.96
-44.58
-42.23
-41.18
-41.32
-42.23
-43.39
-44.32
-44.75
-44.65
-44.21
-43.63
-43.06
-42.52
-41.89
-41.1
-40.25
-39.72
-39.93
-41.22
-43.5
-46.16
-48.27
-48.87
-47.51
-44.44
-40.59
-37.12
-34.9
-33.96
-33.4
-31.77
-27.76
-20.89
-11.97
-2.97
3.69
5.91
2.69
-5.37
-16.16
-26.23
-31.56
-28.32
-13.89
12.08
47.05
85.95
122.5
151.3
169.8
179.17
183.46
187.59
194.66
204.32
212.63
213.75
202.5
176.69
138.36
93.16
48.59
11.63
-13.19
-24.68
-24.63
-16.7
-5
7
16.84
23
24.7
21.78
14.76
4.9
-6.01
-16.24
-24.71
-31.42
-37.27
-43.52
-51.04
-59.78
-68.72
-76.26
-80.91
-81.81
-78.96
-73.17
-65.7
-57.95
-51.07
-45.81
-42.32
-40.21
-38.72
-37.14
-34.95
-32.07
-28.81
-25.61
-22.81
-20.55
-18.76
-17.25
-15.81
-14.37
-12.88
-11.38
-9.93
-8.7
-7.86
-7.58
-7.93
-8.85
-10.12
-11.39
-12.35
-12.83
-12.85
-12.73
-12.83
-13.38
-14.41
-15.66
-16.69
-17.09
-16.64
-15.46
-13.89
-12.4
-11.38
-11
-11.25
-11.92
-12.78
-13.57
-14.17
-14.53
-14.73
-14.85
-14.94
-15.01
-14.92
-14.63
-14.18
-13.67
-13.25
-12.95
-12.59
-11.81
-10.21
-7.51
-3.79
0.58
4.89
8.43
10.71
11.61
11.42
10.66
9.84
9.21
8.78
8.37
7.8
7.12
6.49
6.13
6.12
6.36
6.59
6.54
6.12
5.38
4.42
3.41
2.41
1.47
0.64
0.01
-0.38
-0.59
-0.77
-1.14
-1.88
-3.09
-4.71
-6.62
-8.6
-10.45
-12.01
-13.22
-14.18
-15.13
-16.42
-18.32
-20.89
-23.84
-26.65
-28.69
-29.58
-29.28
-28.15
-26.78
-25.79
-25.58
-26.32
-27.96
-30.31
-33.14
-36.19
-39.17
-41.87
-44.23
-46.39
-48.68
-51.33
