0
0
0
0
0
0
0
0
0
0
0
0.01
0.01
0
-0.03
-0.05
-0.05
0
0.13
0.36
0.66
1.01
1.37
1.72
2.06
2.4
2.79
3.24
3.8
4.42
5.06
5.66
6.2
6.68
7.15
7.68
8.31
9.14
10.09
11.04
11.88
12.56
13.14
13.76
14.65
15.96
17.91
20.32
22.9
25.38
27.58
29.57
31.68
34.32
37.81
42.54
48.15
54.1
59.83
64.97
69.58
74.14
79.34
85.71
93.76
103
112.62
121.73
129.77
136.75
143.3
150.75
157.77
166.64
177.95
191.79
206.97
220.57
228.25
225.36
208.53
176.87
132.76
80.05
23.07
-34.94
-92.44
-149.16
-205.23
-260.37
-313.74
-363.87
-409.83
-450.91
-486.5
-515.74
-537.23
-549.22
-549.96
-538.37
-514.21
-478.67
-433.88
-382.45
-327.02
-269.84
-212.63
-156.66
-102.95
-52.37
-5.9
35.58
71.43
101.35
125.5
144.38
158.69
169.15
176.37
180.75
182.57
182.07
179.51
175.23
169.65
163.18
156.15
148.81
141.3
133.69
126.02
118.33
110.69
103.16
95.8
88.68
81.83
75.25
68.95
62.95
57.25
51.86
46.78
42.03
37.59
33.45
29.61
26.07
22.81
19.83
17.11
14.67
12.48
10.54
8.83
7.35
6.07
4.97
4.05
3.27
2.62
2.09
1.65
1.3
1.01
0.79
0.61
0.47
0.37
0.29
0.23
0.18
0.16
0.14
0.13
0.14
0.14
0.16
0.19
0.23
0.28
0.33
0.37
0.39
0.37
0.32
0.27
0.23
0.23
0.27
0.34
0.4
0.44
0.43
0.39
0.35
0.36
0.44
0.6
0.8
0.99
1.1
1.12
1.07
1.02
1.07
1.28
1.66
2.12
2.53
2.76
2.73
2.52
2.28
2.24
2.58
3.29
4.2
5.01
5.41
5.26
4.67
4
3.71
4.12
5.25
6.79
8.14
8.77
8.4
7.19
5.65
4.4
3.78
3.72
3.67
2.84
0.55
-3.59
-9.66
-17.46
-26.37
-35.27
-42.47
-46.08
-44.65
-37.97
-27.4
-15.58
-5.32
1.58
5.04
6.48
7.86
10.44
14.1
17.5
18.97
17.53
13.53
8.43
3.99
1.41
0.78
1.3
1.77
1.44
0.33
-0.93
-1.55
-1.15
0.07
1.52
2.66
3.3
3.69
4.13
4.71
5.12
4.81
3.38
0.92
-2
-4.51
-5.87
-5.89
-4.91
-3.55
-2.28
-1.14
0.27
2.53
5.89
10.21
14.88
19.15
22.37
24.02
23.83
21.76
17.99
13.04
7.71
2.96
-0.21
-1.02
0.65
4.14
8.29
11.73
13.32
12.33
8.56
2.43
-5.15
-12.94
-19.6
-24.04
-25.66
-24.43
-20.85
-15.68
-9.79
-3.98
1.01
4.64
6.69
7.3
6.93
6.17
5.4
4.7
3.86
2.61
0.9
-1.05
-2.8
-3.95
-4.39
-4.3
-4.07
-4.11
-4.71
-5.98
-7.85
-10.1
-12.47
-14.69
-16.57
-18.03
-19.03
-19.41
-18.83
-16.81
-12.94
-7.07
0.53
9.24
18.18
26.45
33.27
38.08
40.64
41.04
39.79
37.62
35.4
33.84
33.24
33.43
33.81
33.69
32.54
30.33
27.44
24.58
22.44
21.43
21.54
22.39
23.54
24.67
25.76
27.01
28.67
30.84
33.4
35.98
38.09
39.27
39.14
37.56
34.51
30.13
24.57
18.02
10.65
2.65
-5.72
-14.19
-22.67
-31.45
-41.22
-52.73
-66.31
-81.35
-96.31
-109.07
-117.72
-121.23
-119.57
-113.51
-104.03
-91.97
-77.93
-62.64
-47.1
-32.65
-20.52
-11.43
-5.28
-1.35
1.29
3.38
5.27
7.01
8.56
9.92
11.22
12.52
13.84
15.06
16.04
16.67
16.96
17.05
17.16
17.59
18.52
19.93
21.54
22.74
22.91
21.66
19.14
16.04
13.4
12.1
12.48
14.23
16.57
18.68
20
20.4
20.08
19.38
18.57
17.84
17.24
16.83
16.61
16.53
16.49
16.35
16.02
15.47
14.76
13.93
12.99
11.86
10.44
8.6
6.31
3.65
0.81
-1.97
-4.49
-6.74
-8.85
-11.1
-13.71
-16.74
-20.05
-23.36
-26.44
-29.2
-31.7
-34.02
-36.22
-38.27
-40.1
-41.59
-42.54
-42.53
-40.95
-37.09
-30.47
-21.22
-10.24
0.91
10.44
16.93
19.77
19.29
16.47
12.59
8.75
5.65
3.56
2.41
2.03
2.27
3.07
4.4
6.22
8.38
10.63
12.68
14.25
15.12
15.22
14.58
13.39
11.93
10.46
9.13
7.91
6.58
4.83
2.45
-0.51
-3.74
-6.75
-9.12
-10.7
-11.69
-12.56
-13.72
-15.25
-16.84
-17.82
-17.52
-15.59
-12.24
-8.19
-4.42
-1.73
-0.51
-0.62
-1.55
-2.69
-3.67
-4.38
-4.88
-5.31
-5.78
-6.38
-7.32
-8.87
-11.32
-14.78
-19.13
-23.9
-28.55
-32.56
-35.69
-37.93
-39.43
-40.24
-40.17
-38.8
-35.63
-30.37
-23.1
-14.3
-4.74
4.71
13.23
20.16
24.95
27.3
27.19
25.01
21.54
17.79
14.67
12.75
12.11
12.47
13.47
14.82
16.42
18.22
20.1
21.84
23.2
24.01
24.28
24.17
23.84
23.37
22.67
21.58
20.05
18.14
16.14
14.3
12.82
11.73
10.91
10.2
9.49
8.75
8.02
7.34
6.74
6.23
5.73
5.13
4.25
2.93
1.06
-1.33
-4.1
-7.03
-9.89
-12.48
-14.67
-16.38
-17.68
-18.77
-19.91
-21.36
-23.16
-25.18
-27.22
-29.12
-30.96
-32.88
-34.91
-36.69
-37.5
-36.44
-32.77
-26.38
-17.78
-8.01
1.7
10.2
16.7
20.77
22.38
21.9
19.98
17.48
15.2
13.73
13.29
13.76
14.85
16.27
17.77
19.16
20.3
21.04
21.39
21.51
21.71
22.24
23.1
23.95
24.3
23.74
22.22
20.08
17.96
16.39
15.65
15.65
16.08
16.54
16.63
16.05
14.65
12.48
9.86
7.35
5.49
4.62
4.74
5.51
6.43
7.04
7.02
6.26
4.82
2.89
0.69
-1.58
-3.77
-5.82
-7.69
-9.34
-10.75
-11.86
-12.74
-13.57
-14.58
-15.97
-17.77
-19.77
-21.68
-23.28
-24.55
-25.7
-27.01
-28.69
-30.91
-33.72
-37.1
-40.9
-44.74
-47.91
-49.43
-48.33
-43.97
-36.36
-26.26
-14.99
-4.08
5.13
11.8
15.64
16.88
16.16
14.36
12.43
11.16
11.07
12.22
14.31
16.78
19.05
20.68
21.5
21.61
21.29
20.91
20.77
21.02
21.65
22.38
22.88
22.82
22.09
20.81
19.3
17.9
16.86
16.27
16.08
16.13
16.22
16.14
15.69
14.76
13.36
11.66
9.97
8.6
7.73
7.29
6.94
6.21
4.75
2.5
-0.29
-3.15
-5.64
-7.5
-8.76
-9.7
-10.71
-12.22
-14.48
-17.58
-21.32
-25.29
-28.88
-31.43
-32.37
-31.44
-28.81
-25.16
-21.53
-19.07
-18.74
-21
-25.64
-31.89
-38.7
-45.05
-50.24
-53.88
-55.71
-55.48
-52.87
-47.71
-40.22
-31.09
-21.41
-12.37
-4.96
0.17
2.77
2.83
0.62
-3.45
-8.68
-14.26
-19.26
-22.89
-24.66
-24.47
-22.75
-20.42
-18.67
-18.59
-20.57
-23.92
-27.03
-27.87
-24.94
-17.95
-7.79
4.03
16.4
29
42.06
55.97
70.81
86.44
102.99
120.84
139.95
158.83
174.19
181.74
178.26
163.52
141.15
117.54
99.45
91.45
94.38
105.35
118.96
128.91
129.45
116.37
87.75
44.72
-8.55
-65.34
-118.08
-160.36
-188.77
-203.69
-208.6
-208.38
-207.35
-207.26
-206.76
-202.1
-188.72
-163.14
-124.09
-72.56
-11.16
56.84
128.15
199.78
269.16
334.41
394.39
448.63
496.77
538.09
571.05
593.77
604.91
604.64
595.05
579.63
562.04
544.99
529.67
515.95
503.12
490.41
477.03
462.05
444.13
421.73
393.53
358.94
318.39
273.22
225.3
176.45
128.15
81.34
36.6
-5.62
-44.77
-80.16
-111.02
-136.74
-157.1
-172.31
-183
-190.04
-194.33
-196.7
-197.86
-198.43
-198.91
-199.67
-200.83
-202.3
-203.75
-204.85
-205.47
-205.91
-206.88
-209.34
-214.1
-221.51
-231.2
-242.25
-253.63
-264.72
-275.71
-287.66
-302.05
-320.11
-342.2
-367.52
-394.59
-421.69
-447.75
-472.71
-497.49
-523.63
-553.03
-587.74
-629.42
-678.42
-732.46
-785.89
-830.26
-856.57
-858.4
-834.33
-788.54
-728.92
-663.96
-599.89
-539.53
-483.07
-429.81
-379.55
-332.78
-290.04
-250.89
-213.8
-176.78
-138.43
-98.62
-58.48
-19.92
15.47
47.05
75.47
102.47
130.32
160.93
195
231.43
267.29
298.65
321.81
334.56
336.85
330.54
318.42
303.03
285.97
267.92
249.24
230.54
212.82
197.12
184.04
173.43
164.57
156.68
149.34
142.66
137.01
132.69
129.57
127.06
124.38
121.02
117.13
113.45
110.91
109.99
110.19
110.07
107.9
102.51
94.02
83.92
74.33
66.99
62.54
60.43
59.52
59.02
59.09
60.81
65.64
74.7
88.28
105.83
126.32
148.57
171.47
194.01
215.09
233.53
248.13
257.84
261.75
259.15
249.28
231.45
205.29
171.09
130.07
84.1
35.08
-15.67
-67.79
-121.61
-177.17
-232.74
-284.24
-325.29
-348.8
-349.37
-325.32
-279.14
-216.88
-146.36
-75.49
-11.15
41.83
81.67
110.42
133.61
158.22
189.14
225.92
261.93
286.44
289.14
264.48
213.81
144.45
67.24
-6.63
-67.29
-106.97
-120.53
-105.82
-64.07
0.52
82.07
173.74
268.1
356.93
431.35
483.16
507.44
504.63
480.7
444.89
406.04
369.42
336.07
304.36
272.47
240.48
210.4
184.85
165.26
151.01
139.75
128.77
116.3
102.09
87.51
74.48
64.55
58.19
54.65
52.36
49.7
45.66
40.1
33.74
27.57
22.42
18.48
15.32
11.97
7.42
0.88
-7.9
-18.62
-30.57
-42.94
-55.06
-66.64
-77.85
-89.23
-101.45
-115.02
-130.03
-146.1
-162.46
-178.29
-193.04
-206.64
-219.59
-232.7
-246.99
-263.39
-282.67
-305.06
-329.9
-355.26
-378.16
-395.14
-403.4
-401.74
-390.89
-373.07
-350.83
-326.1
-299.73
-271.82
-242.6
-213.07
-185.09
-160.86
-142.15
-129.55
-122.38
-118.89
-116.69
-113.44
-107.36
-97.72
-84.92
-70.49
-56.48
-44.95
-37.29
-33.88
-34.22
-37.27
-42.06
-47.85
-54.3
-61.11
-67.79
-73.7
-78.19
-81.15
-83.05
-84.89
-87.63
-91.55
-95.99
-99.5
-100.58
-98.38
-93.27
-86.62
-80.3
-75.83
-73.75
-73.53
-73.82
-73.17
-70.5
-65.54
-58.62
-50.47
-41.74
-32.79
-23.82
-14.92
-6.34
1.72
9.13
16.05
22.77
29.51
36.24
42.5
47.77
51.66
54.26
56.1
57.96
60.55
64.19
68.76
73.62
77.83
80.26
79.92
76.24
69.38
60.25
50.14
40.38
31.66
23.97
16.75
9.29
1.37
-6.59
-13.46
-17.87
-18.64
-15.25
-8.09
1.57
11.8
20.53
25.93
27.03
23.78
17.17
8.91
0.97
-4.94
-7.92
-8.06
-6.59
-5.29
-6.07
-10.17
-17.73
-27.8
-38.66
-48.45
-55.62
-59.4
-59.6
-56.53
-50.77
-42.99
-34.12
-25.22
-17.52
-11.97
-9.1
-8.64
-9.67
-10.89
-11.04
-9.44
-6.11
-1.77
2.61
6.26
8.85
10.59
12.01
13.66
16.02
19.47
24.29
30.76
39.05
49.07
60.41
72.27
83.76
93.99
102.37
108.6
112.69
114.85
115.42
114.79
113.36
111.49
109.32
106.75
103.36
98.48
91.31
81.2
67.94
52.02
34.74
18.1
4.37
-4.42
-7.05
-3.41
5.47
17.69
30.96
43.16
52.75
58.99
61.96
62.24
60.61
57.77
54.26
50.54
47.09
44.49
43.28
43.66
45.36
47.65
49.61
50.53
50.18
48.83
47
45.06
43.06
40.71
37.69
33.97
29.9
26.19
23.5
22.19
22.12
22.73
23.36
23.41
22.53
20.54
17.29
12.69
6.66
-0.61
-8.66
-16.76
-24.19
-30.47
-35.56
-39.85
-43.92
-48.2
-52.73
-57.07
-60.48
-62.26
-62.09
-60.32
-57.89
-56.14
-56.45
-59.86
-66.76
-76.79
-88.85
-101.33
-112.6
-121.39
-127.29
-130.74
-132.69
-133.99
-134.87
-134.7
-132.28
-126.45
-116.54
-102.71
-85.76
-66.91
-47.39
-28.32
-10.64
4.97
18.11
28.77
37.32
44.39
50.69
56.74
62.82
68.9
74.75
80.06
84.59
88.28
91.21
93.59
95.66
97.58
99.43
101.23
102.93
104.45
105.62
106.11
105.47
103.31
99.5
94.34
88.49
82.83
77.99
74.26
71.46
69.21
67.17
65.23
63.44
61.94
60.66
59.35
57.68
55.34
52.28
48.65
44.75
40.92
37.36
34.11
30.94
27.47
23.22
17.77
10.85
2.43
-7.31
-18.06
-29.44
-41.12
-52.83
-64.43
-75.91
-87.34
-98.82
-110.24
-121.11
-130.47
-137
-139.36
-136.63
-128.67
-116.31
-101.18
-85.25
-70.34
-57.64
-47.59
-39.9
-33.94
-29.04
-24.64
-20.42
-16.17
-11.74
-6.95
-1.71
3.99
10.02
16.13
22.1
27.72
32.97
37.91
42.64
47.28
51.85
56.29
60.43
64.06
66.97
68.99
69.96
69.77
68.31
65.49
61.35
56.07
50.12
44.12
38.71
34.36
31.23
29.16
27.72
26.42
24.88
22.87
20.4
17.6
14.59
11.38
7.9
3.99
-0.39
-5.11
-9.81
-14.05
-17.48
-20
-21.81
-23.26
-24.62
-26
-27.28
-28.3
-29
-29.58
-30.41
-31.97
-34.59
-38.33
-42.88
-47.62
-51.72
-54.3
-54.61
-52.17
-46.95
-39.37
-30.31
-20.83
-12.01
-4.62
0.94
4.6
6.63
7.36
7.17
6.42
5.49
4.78
4.61
5.21
6.59
8.56
10.86
13.25
15.62
17.94
20.23
22.38
24.17
25.33
25.68
25.26
24.33
23.32
22.56
22.24
22.28
22.47
22.56
22.36
21.83
21.04
20.21
19.55
19.29
19.53
20.27
21.27
22.23
22.86
22.95
22.56
21.9
21.29
20.97
20.98
21.16
21.16
20.78
19.98
19.08
18.57
18.93
20.41
22.92
26.01
29.17
32.11
34.91
38.18
42.95
50.46
61.75
77.41
97.11
119.65
143.27
166.15
187.19
206.5
225.5
246.36
270.79
298.78
327.89
353.64
370.98
376.18
368.33
349.53
323.83
295.19
265.79
235.35
201.69
162.17
115.15
60.72
0.46
-63.42
-128.92
-194.79
-260.41
-325.43
-389.59
-452.73
-515.3
-578.3
-642.41
-706.51
-766.48
-815.31
-845.03
-849.76
-828.38
-785.32
-728.92
-668.3
-610.33
-558.27
-512.36
-471.49
-434.73
-401.82
-372.64
-346.46
-321.75
-296.75
-270.34
-242.6
-214.69
-188.31
-164.7
-144.04
-125.42
-107.21
-87.91
-66.72
-43.85
-20.31
2.68
24.34
44.67
64.43
84.71
106.39
129.82
154.55
179.66
203.99
226.65
247.34
266.67
286.12
307.67
332.88
361.71
391.7
418.16
435.33
438.44
425.41
397.66
359.43
316.27
273.26
233.99
200.34
172.98
151.79
136.25
125.36
117.76
112.09
107.42
103.61
101.39
101.99
106.49
115.24
127.33
140.63
152.49
160.9
165.55
167.88
170.15
173.74
177.89
179.82
176.15
165
147.32
126.44
106.3
89.37
75.69
63.57
51.25
38.35
26.15
16.48
10.43
7.46
5.82
3.56
-0.4
-5.87
-11.72
-16.67
-20.11
-22.23
-23.84
-25.86
-28.72
-32.16
-35.28
-37
-36.63
-34.32
-31.22
-29.07
-29.66
-33.97
-41.69
-51.05
-59.34
-63.63
-61.77
-53.01
-38.28
-19.83
-0.57
16.65
29.68
37.24
38.94
35.23
27.36
17.18
6.88
-1.59
-7.15
-9.78
-10.39
-10.14
-9.73
-9.14
-7.71
-4.79
-0.23
5.46
11.37
16.64
20.86
24.09
26.58
28.54
30.02
31.03
31.68
32.3
33.33
35.02
37.19
39.07
39.53
37.56
32.84
26.12
19.13
14.05
12.65
15.61
22.19
30.53
38.29
43.45
44.85
42.3
36.33
27.8
17.57
6.37
-5.11
-16.14
-25.93
-33.69
-38.94
-41.66
-42.45
-42.33
-42.48
-43.85
-47.03
-52.11
-58.78
-66.38
-73.84
-79.71
-82.25
-79.89
-71.73
-58.06
-40.37
-21.03
-2.45
13.54
26.13
35.38
41.85
46.15
48.55
49.05
47.53
43.98
38.73
32.52
26.34
21.15
17.6
15.75
15.08
14.74
13.96
12.4
10.3
8.3
7.1
7.18
8.6
11.07
14.05
16.86
18.74
19.04
17.24
13.21
7.37
0.72
-5.42
-9.88
-12.11
-12.53
-12.33
-12.96
-15.5
-20.3
-26.96
-34.81
-43.27
-52.2
-61.72
-71.94
-82.66
-93.25
-102.67
-109.58
-112.5
-109.99
-100.91
-84.93
-62.87
-36.78
-9.6
15.62
36.5
51.82
61.44
66
66.25
62.9
56.51
47.79
37.76
27.79
19.35
13.68
11.45
12.74
17.09
23.76
31.95
40.94
50.06
58.73
66.36
72.4
76.4
78.09
77.48
74.85
70.73
65.76
60.57
55.63
51.15
47.13
43.48
40.1
36.99
34.21
31.82
29.75
27.84
25.74
23.13
19.81
15.92
11.96
8.82
7.45
8.52
12.09
17.53
23.63
29.1
32.96
34.8
34.82
33.52
31.38
28.62
25.1
20.43
14
5.23
-6.22
-20.19
-35.71
-51.01
-63.78
-71.82
-73.83
-70.04
-62.26
-53.42
-46.67
-44.22
-46.72
-52.95
-60.28
-65.63
-66.41
-61.39
-50.99
-36.99
-21.86
-7.95
3.07
10.42
14.14
14.74
13
9.85
6.28
3.25
1.58
1.77
3.9
7.67
12.55
17.95
23.35
28.34
32.65
36.09
38.68
40.61
42.15
43.58
44.94
46.11
46.72
46.4
44.85
41.95
37.76
32.45
26.33
19.76
13.21
7.16
1.96
-2.14
-5.16
-7.26
-8.73
-9.86
-10.94
-12.19
-13.88
-16.24
-19.43
-23.45
-28.09
-32.88
-37.23
-40.57
-42.62
-43.55
-44.01
-44.94
-47.33
-51.68
-57.71
-64.26
-69.56
-71.75
-69.51
-62.4
-50.99
-36.68
-21.29
-6.71
5.42
14.04
18.77
20.01
18.74
16.34
14.08
12.88
13.16
14.87
17.76
21.48
25.63
29.74
33.25
35.63
36.46
35.63
33.19
29.41
24.52
18.79
12.49
6.01
-0.16
-5.46
-9.44
-11.88
-12.89
-12.86
-12.37
-11.95
-11.92
-12.25
-12.68
-12.84
-12.54
-11.95
-11.61
-12.28
-14.62
-19.06
-25.55
-33.57
-42.07
-49.58
-54.4
-54.93
-50.15
-40.07
-25.85
-9.62
6.13
19.23
28.4
33.43
35
34.23
32.25
29.88
27.52
25.26
23.14
21.18
19.57
18.54
18.25
18.66
19.51
20.38
20.86
20.7
19.81
18.29
16.29
13.96
11.41
8.73
5.98
3.14
0.18
-2.98
-6.42
-10.16
-14.07
-17.95
-21.53
-24.62
-27.2
-29.45
-31.77
-34.67
-38.66
-43.99
-50.41
-56.98
-62.16
-64.1
-61.23
-52.82
-39.43
-22.8
-5.44
10.22
22.42
30.48
34.71
35.97
35.25
33.3
30.68
27.89
25.48
24.11
24.27
26.09
29.16
32.72
35.91
38.16
39.36
39.81
39.98
40.22
40.56
40.78
40.58
39.74
38.28
36.42
34.41
32.46
30.62
28.85
27.08
25.32
23.65
22.16
20.92
19.9
19
18.09
17.07
15.93
14.66
13.31
11.93
10.58
9.34
8.34
7.66
7.29
7.12
6.9
6.43
5.57
4.33
2.82
1.25
-0.19
-1.4
-2.36
-3.21
-4.18
-5.6
-7.66
-10.39
-13.56
-16.79
-19.72
-22.23
-24.46
-26.77
-29.51
-32.77
-36.33
-39.75
-42.59
-44.63
-45.98
-47.08
-48.5
-50.88
-54.65
-59.91
-66.26
-72.67
-77.64
-79.47
-76.81
-69.12
-57
-42.07
-26.53
-12.45
-1.29
6.4
10.84
12.74
12.91
12.08
10.82
9.59
8.77
8.65
9.36
10.78
12.63
14.43
15.76
16.31
16.05
15.18
14.11
13.19
12.64
12.42
12.28
11.94
11.18
10.01
8.61
7.25
6.11
5.28
4.8
4.67
5.03
6.02
7.79
10.35
13.53
16.99
20.26
22.87
24.39
24.55
23.34
21.02
18.14
15.29
13.04
11.65
11.04
10.87
10.69
10.14
9.02
7.39
5.35
3.03
0.45
-2.49
-5.9
-9.79
-13.94
-17.91
-21.11
-23.11
-23.8
-23.57
-23.21
-23.57
-25.28
-28.48
-32.79
-37.44
-41.53
-44.4
-45.84
-46.28
-46.76
-48.65
-53.07
-60.29
-69.2
-77.46
-82
-80.11
-70.49
-53.8
-32.58
-10.35
9.43
24.39
33.66
37.74
37.96
35.85
32.74
29.56
26.9
25.02
23.99
23.62
23.53
23.3
22.63
21.55
20.41
19.72
19.87
20.89
22.38
23.57
23.66
22.05
18.61
13.76
8.38
3.5
0.03
-1.55
-1.32
0.16
2.02
3.4
3.67
2.57
0.23
-2.97
-6.48
-9.79
-12.6
-14.89
-16.73
-18.12
-18.7
-17.72
-14.22
-7.51
2.3
14.21
26.44
36.99
44.16
46.87
44.77
38.14
27.92
15.64
3.36
-6.88
-13.64
-16.76
-17.51
-18.14
-21.04
-27.71
-38.23
-51.14
-63.96
-73.85
-78.42
-76.23
-67.13
-52.31
-34.13
-15.63
0.22
11.36
17.22
18.89
18.58
18.6
20.43
24.21
28.86
32.94
35.54
36.72
37.32
38.1
38.97
38.92
36.71
31.82
25.13
18.6
14.14
12.44
12.58
12.77
11.87
10.45
10.87
15.97
27.34
44.27
63.98
83.01
98.78
110.29
117.62
120.79
118.97
110.65
94.75
71.78
44.37
16.65
-7.07
-23.83
-33.12
-37.13
-39.98
-46.23
-58.9
-77.98
-100
-119.36
-130.61
-130.78
-120.21
-101.8
-79.12
-54.8
-30.12
-5.93
16.31
34.23
45.46
49.08
46.3
40.07
33.61
29.1
27.23
27.71
30.25
34.95
42.15
51.69
62.63
73.39
82.31
88.27
90.91
90.34
86.74
80.07
70.04
56.39
39.23
19.34
-1.79
-22.14
-39.62
-52.76
-61.15
-65.73
-68.39
-71.24
-75.73
-82.06
-89.13
-95.12
-98.28
-97.63
-93.35
-86.61
-79.1
-72.47
-67.78
-65.18
-63.88
-62.39
-58.96
-52.12
-41.15
-26.39
-9.26
7.96
22.72
32.91
37.45
36.57
31.71
25.02
18.75
14.58
13.3
14.76
18.09
22.13
25.79
28.33
29.52
29.54
28.78
27.69
26.59
25.68
25.11
25
25.31
25.69
25.42
23.56
19.31
12.45
3.56
-6.08
-14.97
-21.93
-26.49
-28.94
-30.03
-30.58
-31.06
-31.57
-31.91
-31.84
-31.3
-30.48
-29.68
-29.17
-29.03
-29.07
-28.92
-28.19
-26.59
-24.16
-21.21
-18.28
-15.98
-14.77
-14.76
-15.76
-17.32
-18.95
-20.29
-21.24
-21.96
-22.84
-24.41
-27.2
-31.67
-37.86
-45.11
-52.01
-56.55
-56.68
-51.04
-39.52
-23.27
-4.34
15.08
33.18
48.73
60.98
69.37
73.47
73.13
68.73
61.29
52.36
43.48
35.84
29.9
25.51
22.17
19.36
16.89
14.87
13.59
13.26
13.8
14.77
15.51
15.39
13.97
11.18
7.15
2.16
-3.51
-9.61
-15.77
-21.46
-25.99
-28.65
-28.86
-26.31
-21.07
-13.53
-4.4
5.4
14.81
22.73
28.28
30.99
31
29
26.16
23.67
22.36
22.42
23.34
24.12
23.63
20.9
15.4
7.26
-2.71
-13.04
-21.97
-27.93
-30.17
-29.25
-26.83
-25.17
-26.25
-31.07
-39.43
-50.22
-61.77
-72.21
-79.51
-81.6
-76.68
-63.85
-43.83
-19.14
6.26
28.17
43.32
50.28
49.49
42.78
32.61
21.34
10.93
2.78
-2.33
-4.27
-3.5
-0.94
2.29
5.27
7.4
8.58
9.02
9.1
9.25
9.79
10.9
12.5
14.3
15.83
16.61
16.42
15.34
13.75
12.14
10.88
10.01
9.26
8.24
6.58
4.09
0.8
-3.03
-7.02
-10.73
-13.75
-15.81
-16.87
-17.18
-17.25
-17.66
-18.89
-21.16
-24.46
-28.54
-32.99
-37.23
-40.57
-42.32
-42
-39.67
-36.08
-32.52
-30.46
-30.99
-34.38
-39.87
-45.93
-50.65
-52.35
-49.98
-43.26
-32.67
-19.23
-4.29
10.63
24.06
34.67
41.58
44.46
43.64
39.97
34.57
28.56
22.86
18.04
14.53
12.55
12.22
13.55
16.34
20.25
24.81
29.6
34.19
38.26
41.51
43.77
44.99
45.35
45.21
45.01
45.12
45.68
46.58
47.51
48.13
48.14
47.43
46.05
44.16
42
39.79
37.66
35.61
33.51
31.15
28.38
25.17
21.57
17.72
13.68
9.4
4.8
-0.12
-5.17
-9.98
-14.09
-17.22
-19.34
-20.77
-22.07
-23.87
-26.75
-31.04
-36.73
-43.26
-49.54
-54
-54.94
-51.03
-41.88
-28.3
-12.2
3.88
17.49
26.92
31.56
31.89
29.09
24.55
19.45
14.46
9.8
5.54
1.83
-0.98
-2.4
-2.14
-0.28
2.62
5.77
8.49
10.42
11.53
11.94
11.69
10.62
8.66
5.93
2.87
0.14
-1.79
-2.87
-3.51
-4.38
-6.01
-8.6
-11.91
-15.44
-18.62
-21
-22.37
-22.72
-22.3
-21.55
-21
-21.15
-22.26
-24.22
-26.62
-28.88
-30.55
-31.53
-32.22
-33.28
-35.49
-39.44
-45.15
-52.03
-58.72
-63.38
-64.1
-59.57
-49.54
-35.04
-18.2
-1.52
12.71
23.1
29.24
31.5
30.67
27.53
22.8
17.06
10.88
4.86
-0.42
-4.54
-7.27
-8.58
-8.62
-7.54
-5.53
-2.7
0.77
4.65
8.55
12.06
14.74
16.33
16.76
16.06
14.36
11.75
8.38
4.43
0.28
-3.63
-6.87
-9.24
-10.84
-12.04
-13.33
-15.11
-17.51
-20.4
-23.52
-26.58
-29.43
-32.07
-34.67
-37.47
-40.78
-44.84
-49.71
-55.05
-60
-63.21
-63.17
-58.68
-49.37
-35.96
-20.05
-3.74
11
22.78
30.95
35.5
36.86
35.64
32.55
28.31
23.71
19.49
16.24
14.26
13.55
13.78
14.54
15.45
16.35
17.29
18.41
19.78
21.28
22.58
23.24
22.91
21.32
18.47
14.5
9.72
4.61
-0.29
-4.39
-7.26
-8.76
-9.08
-8.73
-8.26
-8.06
-8.17
-8.38
-8.43
-8.22
-7.88
-7.68
-7.84
-8.48
-9.72
-11.82
-15.27
-20.56
-27.79
-36.22
-44.19
-49.55
-50.27
-45.26
-34.7
-20
-3.21
13.59
28.77
41.38
51.01
57.55
61.04
61.6
59.5
55.34
50
44.54
39.92
36.73
35.08
34.62
34.8
35.07
35.06
34.6
33.63
32.19
30.25
27.79
24.75
21.16
17.14
13.01
9.22
6.28
4.59
4.22
4.95
6.3
7.73
8.91
9.79
10.55
11.46
12.64
13.92
14.92
15.07
13.82
10.75
5.77
-0.89
-8.64
-16.6
-23.88
-29.65
-33.47
-35.26
-35.3
-33.98
-31.66
-28.55
-24.79
-20.57
-16.25
-12.43
-9.84
-9.16
-10.93
-15.37
-22.2
-30.56
-38.94
-45.33
-47.66
-44.39
-35.1
-20.7
-3.31
14.43
30.07
41.94
49.37
52.54
52.07
48.72
43.21
36.3
28.83
21.74
15.86
11.72
9.41
8.62
8.84
9.64
10.77
12.18
13.88
15.7
17.34
18.39
18.55
17.67
15.84
13.38
10.66
8.06
5.83
4.03
2.55
1.14
-0.41
-2.21
-4.21
-6.2
-7.94
-9.27
-10.19
-10.88
-11.57
-12.51
-13.86
-15.64
-17.74
-19.99
-22.22
-24.35
-26.4
-28.55
-31.06
-34.26
-38.38
-43.35
-48.58
-52.99
-55.18
-53.86
-48.36
-38.94
-26.78
-13.58
-1.06
9.55
17.63
23.14
26.28
27.34
26.58
24.38
21.3
18.14
15.68
14.49
14.73
16.1
18.09
20.15
22.05
23.78
25.55
27.55
29.74
31.84
33.43
34.1
33.65
32.11
29.75
26.9
23.87
20.9
18.13
15.65
13.49
11.65
10.11
8.77
7.53
6.31
5.04
3.69
2.25
0.74
-0.77
-2.15
-3.25
-3.97
-4.33
-4.57
-5.05
-6.08
-7.88
-10.39
-13.36
-16.43
-19.23
-21.51
-23.23
-24.59
-25.99
-28.05
-31.38
-36.37
-42.86
-50.01
-56.29
-59.79
-58.82
-52.47
-41.08
-26.19
-10.1
4.79
16.68
24.79
29.26
30.81
30.27
28.32
25.47
22.14
18.88
16.27
14.8
14.68
15.72
17.5
19.59
21.74
23.92
26.22
28.65
31
32.88
33.87
33.65
32.16
29.59
26.34
22.89
19.68
17.01
14.95
13.34
11.93
10.44
8.73
6.86
5
3.44
2.34
1.79
1.74
2.04
2.5
2.92
3.17
3.24
3.17
3.07
3.01
3.01
2.95
2.64
1.88
0.51
-1.54
-4.13
-7.04
-9.96
-12.66
-15.06
-17.34
-19.84
-22.85
-26.47
-30.53
-34.57
-38.13
-40.88
-42.86
-44.51
-46.57
-49.82
-54.78
-61.31
-68.42
-74.39
-77.19
-75.19
-67.84
-55.88
-41.19
-26.07
-12.42
-1.25
7.47
14.37
20.08
24.75
27.87
28.48
25.68
19.13
9.39
-2.05
-12.96
-20.88
-23.66
-20.12
-10.61
2.69
16.16
25.74
28.34
23.05
11.53
-2.62
-15.35
-23.6
-26.26
-24.07
-18.83
-12.5
-6.64
-2.32
-0.32
-1.19
-5.13
-11.59
-19.14
-25.69
-29.14
-28.11
-22.43
-13.25
-2.55
7.52
15.37
20.31
22.61
22.99
22.21
20.66
18.29
14.81
10.03
4.15
-2.2
-8.1
-12.78
-15.83
-17.5
-18.64
-20.49
-24.23
-30.66
-39.76
-50.57
-61.26
-69.48
-73.04
-70.49
-61.61
-47.53
-30.36
-12.66
3.3
15.99
24.77
29.77
31.51
30.63
27.69
23.26
18.04
12.91
8.86
6.76
7.15
10.04
14.97
21.15
27.73
34.03
39.61
44.24
47.78
50.13
51.16
50.85
49.33
46.94
44.24
41.79
39.94
38.73
37.83
36.7
34.87
32.13
28.57
24.56
20.5
16.65
13.05
9.51
5.8
1.7
-2.82
-7.64
-12.54
-17.35
-22.04
-26.81
-32.03
-38.2
-45.74
-54.81
-65.16
-75.86
-85.38
-91.74
-92.98
-87.73
-75.68
-57.82
-36.23
-13.59
7.53
25.17
38.29
46.68
50.77
51.26
49.01
44.9
39.92
35.06
31.24
29.11
28.87
30.27
32.76
35.71
38.66
41.4
43.87
46.03
47.7
48.55
48.25
46.6
43.68
39.89
35.81
32.06
29.13
27.24
26.31
26.03
26
25.82
25.24
24.21
22.78
21.06
19.11
16.91
14.39
11.54
8.41
5.14
1.83
-1.54
-5.15
-9.27
-14.08
-19.51
-25.13
-30.36
-34.65
-37.76
-39.84
-41.41
-43.16
-45.74
-49.6
-54.89
-61.34
-68.16
-74.04
-77.33
-76.45
-70.34
-58.9
-43.11
-24.82
-6.21
10.75
24.7
35.07
41.87
45.54
46.61
45.7
43.43
40.48
37.59
35.4
34.39
34.68
36.09
38.18
40.41
42.36
43.77
44.52
44.56
43.84
42.23
39.63
36.1
31.93
27.64
23.83
20.99
19.37
18.93
19.37
20.32
21.4
22.36
23.05
23.46
23.67
23.77
23.87
24.01
24.16
24.32
24.51
24.84
25.44
26.37
27.53
28.64
29.33
29.23
28.14
26.04
23.13
19.68
16.05
12.49
9.18
6.13
3.2
0.14
-3.36
-7.53
-12.41
-17.87
-23.59
-29.27
-34.64
-39.65
-44.36
-49
-53.86
-59.35
-65.93
-73.97
-83.42
-93.54
-102.72
-108.79
-109.69
-104.15
-92.33
-75.77
-57
-38.73
-23.09
-11.32
-3.6
0.57
2.11
2.02
1.24
0.6
0.79
2.41
5.85
11.24
18.38
26.69
35.41
43.71
50.97
56.88
61.44
64.81
67.21
68.75
69.45
69.33
68.4
66.75
64.45
61.56
58.09
54.08
49.67
45.11
40.76
36.99
34.04
31.95
30.56
29.54
28.56
27.3
25.61
23.45
20.95
18.34
15.84
13.65
11.82
10.3
8.9
7.43
5.7
3.59
1.01
-2.11
-5.77
-9.98
-14.58
-19.34
-23.97
-28.22
-32.07
-35.63
-39.18
-42.86
-46.62
-50.19
-53.24
-55.58
-57.32
-58.79
-60.46
-62.8
-66.06
-70.36
-75.48
-80.81
-85.24
-87.26
-85.39
-78.58
-66.76
-50.95
-32.97
-14.94
1.32
14.61
24.38
30.58
33.44
33.4
31.11
27.45
23.45
20.09
18.09
17.7
18.78
20.89
23.55
26.43
29.35
32.25
35.03
37.54
39.53
40.79
41.23
40.91
40.01
38.76
37.27
35.54
33.54
31.21
28.63
26
23.59
21.61
20.16
19.17
18.44
17.78
17.07
16.36
15.7
15.17
14.65
13.92
12.69
10.65
7.65
3.72
-0.91
-5.9
-10.91
-15.68
-20.1
-24.21
-28.07
-31.73
-35.19
-38.42
-41.42
-44.26
-47.07
-49.99
-53.16
-56.71
-60.83
-65.69
-71.34
-77.49
-83.33
-87.56
-88.69
-85.51
-77.55
-65.31
-50.16
-34.04
-18.93
-6.5
2.2
6.8
7.59
5.34
1.23
-3.34
-6.91
-8.12
-5.99
-0.13
9.06
20.44
32.35
43.14
51.67
57.67
61.64
64.5
66.92
68.94
69.92
68.94
65.44
59.61
52.41
45.29
39.59
36.17
35.23
36.41
38.94
41.83
44.08
44.8
43.43
39.94
34.8
28.82
22.74
16.95
11.4
5.84
0.18
-5.16
-9.3
-11.35
-11.01
-8.98
-6.96
-7.05
-10.82
-18.5
-28.62
-38.44
-44.93
-45.94
-41.06
-31.77
-21.08
-12.44
-8.82
-11.85
-21.37
-35.64
-51.79
-66.69
-77.71
-83.28
-83.03
-77.62
-68.43
-57.19
-45.7
-35.49
-27.51
-21.77
-17.36
-12.8
-6.64
1.9
12.69
24.69
36.43
46.35
53.12
55.86
54.24
48.79
40.89
32.71
26.51
23.96
25.47
30.2
36.55
42.95
48.46
52.92
56.6
59.85
62.69
64.9
66.18
66.32
65.28
63.05
59.48
54.28
47.17
38.1
27.48
16.27
5.87
-2.03
-5.88
-4.67
1.74
12.44
25.59
38.94
50.46
58.95
64.34
67.51
69.77
72.24
75.47
79.47
84.1
89.31
95.17
101.64
108.12
113.17
114.59
109.69
95.92
71.47
35.92
-9.17
-59.77
-109.58
-151.05
-177.48
-185.59
-177.34
-159.83
-143.01
-135.84
-142.85
-162.72
-189.54
-215.92
-236.15
-248.06
-252.92
-253.87
-254.14
-255.7
-258.92
-262.85
-265.71
-265.46
-260.14
-248.14
-228.51
-201
-166.11
-125.2
-80.41
-34.62
9.08
48.09
81
107.88
129.98
149.07
166.63
183.68
200.62
217.44
233.7
248.66
261.55
271.89
279.76
285.63
289.48
290
284.39
269.24
242.41
204.85
161.38
120.05
89.91
78.33
88.37
117.58
158.32
199.79
231.17
244.49
236.66
209.49
168.15
118.71
65.9
11.83
-43.85
-102.67
-165.39
-230.07
-291.5
-341.79
-372.64
-378.16
-356.9
-311.81
-248.49
-172.68
-88.97
-1.76
83.14
157.28
210.89
236.22
230.94
199.23
149.52
90.68
28.96
-32.12
-89.44
-137.87
-169.55
-176.04
-151.56
-95.73
-14.09
83.35
184.49
277.31
351.57
400.39
421.18
416.28
392.09
357.03
318.69
281.8
247.68
215.36
183.53
151.56
119.73
88.57
58.07
27.52
-4.03
-37.29
-72.57
-109.86
-149
-189.65
-230.64
-269.63
-303.13
-327.2
-338.82
-336.96
-323.14
-300.96
-274.93
-249.26
-226.91
-209.4
-197.01
-189.32
-185.61
-185.02
-186.48
-188.53
-189.2
-186.3
-178.09
-164.06
-145.55
-125.27
-106.3
-90.82
-79.35
-71.23
-65.86
-63.59
-65.51
-72.08
-81.69
-90.64
-94.92
-92.67
-86.02
-80.63
-83.05
-97.71
-125.36
-163.76
-209.72
-260.53
-313.73
-365.63
-410.13
-439.54
-447.33
-431.35
-395.32
-347.52
-297.37
-251.88
-213.98
-182.74
-155.44
-129.62
-103.97
-78.16
-52.11
-25.51
2.16
31.1
60.94
90.81
119.57
146.54
172.01
197.47
225.18
257.17
293.79
332.75
369.2
397.07
411.37
410.16
395.4
372.03
346.06
322.35
303.43
289.47
279.21
270.95
263.2
254.88
245.17
233.62
220.31
205.9
191.33
177.2
163.37
148.88
132.47
113.34
91.81
69.32
47.92
29.47
15.01
4.62
-2.31
-6.52
-8.57
-8.83
-7.7
-5.85
-4.13
-3.35
-3.82
-5.21
-6.67
-7.33
-6.76
-5.15
-3.34
-2.28
-2.63
-4.47
-7.21
-9.93
-11.73
-12.13
-11.25
-9.76
-8.52
-8.21
-8.97
-10.43
-11.87
-12.71
-12.74
-12.27
-11.79
-11.69
-12
-12.45
-12.66
-12.47
-11.98
-11.53
-11.39
-11.73
-12.47
-13.47
-14.56
-15.58
-16.43
-16.98
-17.17
-17.08
-16.94
-17.09
-17.83
-19.3
-21.37
-23.73
-26.03
-28.15
-30.19
-32.54
-35.65
-39.84
-45.12
-51.09
-57.01
-61.91
-64.84
-65.11
-62.5
-57.41
-50.79
-43.95
-38.21
-34.54
-33.35
-34.49
-37.47
-41.76
-46.99
-52.99
-59.64
-66.69
-73.74
-80.25
-85.76
-90
-92.99
-95.08
-96.97
-99.76
-104.8
-113.38
-126.11
-142.37
-160.03
-175.79
-186.12
-188.37
-181.5
-166.12
-143.74
-115.88
-83.38
-46.3
-4.1
43.78
97.49
156.17
217.57
277.74
331.32
372.63
397.17
403.15
392.28
369.4
341.04
313.71
292.48
280.26
277.76
283.47
293.88
303.83
307.66
300.86
281.87
253.01
219.82
189.12
166.33
153.46
148.64
147.39
144.81
137.68
125.36
109.3
91.79
74.51
57.94
41.55
24.65
7.17
-10.13
-26.03
-39.61
-50.93
-61.14
-72.01
-85.07
-100.81
-118.52
-136.62
-153.58
-168.82
-183.05
-198.15
-216.27
-238.92
-266.52
-298.61
-334.49
-373.7
-415.68
-458.81
-499.54
-532.41
-551.57
-552.81
-535.24
-501.41
-455.91
-403.28
-346.33
-286.18
-223.12
-157.79
-91.66
-26.27
38.06
102.96
171.2
244.43
320.7
393.38
452.18
486.5
489.6
461.47
409.16
344.31
279.03
222.01
176.67
141.61
112.72
85.68
57.63
27.63
-3.85
-35.68
-66.68
-95.8
-122.24
-145.12
-162.92
-173.46
-173.98
-161.82
-135.31
-94.55
-41.26
21.98
92.45
167.25
242.49
312.18
368.4
403.22
412.37
398.3
370.68
343.07
327.19
327.67
340.2
354.21
358.4
346.01
316.98
276.6
231.63
186.94
144
101.81
58.83
14.41
-30.89
-76.17
-121.01
-165.96
-211.86
-259.17
-307.42
-355.22
-401.12
-444.93
-488.49
-535.14
-587.79
-646.06
-704.49
-752.96
-779.87
-776.81
-742.37
-682.77
-609.35
-533.74
-463.5
-400.48
-341.77
-282.77
-219.71
-151.11
-78.15
-4.47
63.98
119.39
153.44
160.26
139.66
98.49
48.8
2.95
-31.57
-54.5
-70.81
-85.84
-100.51
-110.02
-106.73
-84.93
-44.48
8.96
66.39
118.99
160.42
187.52
199.76
198.85
188.58
174.64
163.93
162.35
173.37
197.54
232.86
275.73
321.86
367
407.59
441.14
466.57
484.08
494.58
498.97
497.85
491.69
481.22
467.27
450.21
429.52
404.01
372.79
336.44
297.34
258.82
223.36
191.12
159.71
125.33
84.88
37.32
-15.94
-71.74
-126.68
-178.58
-227.3
-274.53
-322.97
-375.48
-434.34
-500.6
-573.33
-648.87
-720.6
-779.91
-818.45
-830.84
-816.6
-780.2
-729.07
-670.58
-609.76
-548.79
-488.13
-428.27
-370.69
-317.31
-269.13
-224.99
-181.69
-135.36
-83.44
-26.04
34.21
93.1
146.98
194.21
235.82
274.96
315.84
362.3
416.48
477.41
540.26
596.62
636.24
650.02
633.15
586.74
517.42
434.43
346.14
257.38
168.95
78.86
-15.45
-115.1
-218.63
-321.65
-417.59
-498.84
-558.68
-593.14
-602.33
-590.34
-563.54
-528.46
-489.95
-450.78
-412.29
-375.53
-341.76
-312.03
-286.43
-263.5
-240.8
-215.94
-187.92
-157.51
-126.92
-98.83
-75.08
-56.04
-40.51
-26.48
-11.99
3.93
20.97
37.73
52.39
63.56
70.78
74.7
76.73
78.43
80.86
84.32
88.31
91.75
93.41
92.2
87.48
79.36
68.84
57.71
48.11
41.89
40.02
42.37
47.99
55.93
65.88
78.41
94.67
115.6
141.23
170.42
201.39
232.39
262.46
291.69
320.98
351.7
385.49
424.09
468.92
520.13
575.3
628.69
672.06
696.85
697.15
672.09
625.98
566.36
501.03
435.56
372.69
313.35
258.16
208.18
164.48
127.1
94.5
64.07
33.47
1.84
-29.91
-59.94
-86.54
-109.27
-128.95
-147.23
-165.75
-185.67
-207.4
-230.8
-255.24
-279.79
-303.42
-325.43
-345.55
-363.98
-380.89
-395.81
-407.25
-412.97
-410.93
-400.2
-381.54
-357.07
-329.54
-301.43
-274.41
-249.2
-225.58
-202.5
-178.17
-150.47
-117.6
-78.93
-35.41
10.56
56.09
98.98
138.39
175.01
210.65
247.81
288.98
335.78
387.75
441.27
489.48
523.89
537.07
525.47
490.83
439.16
378.04
313.63
249.31
186.21
124.99
67.46
16.92
-22.64
-47.81
-56.48
-47.74
-21.51
21.53
79.31
147.66
220.03
288.09
343.4
379.31
392.31
382.44
352.68
307.82
253.11
193.32
132.19
72.17
14.44
-41.02
-95.19
-149.08
-202.57
-253.38
-296.92
-327.65
-341.23
-336.5
-316.16
-285.63
-250.81
-216.2
-184.31
-156.51
-134.34
-119.83
-114.65
-118.46
-128.11
-138.37
-144.27
-143.63
-138.04
-131.72
-128.83
-130.86
-135.68
-138.86
-136.12
-125.63
-108.76
-88.77
-68.74
-49.79
-30.98
-10.61
11.89
34.88
55
68.8
74.73
74.21
71.36
71.63
79.89
98.71
127.33
161.4
193.77
216.14
221.46
206.18
171.75
124.24
72.46
25.02
-12.08
-36.5
-48.91
-51.5
-46.54
-35.87
-21.16
-4.46
11.7
24.72
32.9
35.96
35.06
32.15
29.12
27.18
26.73
27.66
29.48
31.45
32.58
31.82
28.4
22.42
15.17
8.68
4.78
3.84
4.24
2.69
-4.32
-18.84
-40.43
-66.28
-92.53
-115.88
-134.85
-149.78
-161.97
-172.45
-181.33
-187.8
-190.78
-189.7
-184.79
-176.97
-167.49
-157.83
-149.87
-146.12
-149.52
-162.51
-185.35
-214.77
-243.88
-263.72
-266.22
-247.05
-207.19
-152.38
-90.79
-30.26
23.76
68.68
103.98
129.96
146.98
155.53
156.74
152.71
146.27
140.19
136.31
135.18
136.24
138.42
140.91
143.5
146.58
150.74
156.3
163.02
170.11
176.43
180.93
183.07
182.97
181.43
179.59
178.48
178.56
179.57
180.69
180.99
180.08
178.35
177.05
177.81
182.02
190.17
201.7
215.06
228.28
239.43
247.08
250.47
249.37
243.74
233.26
217.08
193.92
162.48
122.21
73.77
19.22
-38.64
-96.9
-153.39
-207.19
-258.4
-307.87
-357.03
-407.77
-462.03
-520.75
-582.33
-641.48
-689.7
-717.51
-717.95
-689.43
-636.5
-568.04
-493.77
-420.97
-352.96
-289.75
-229.9
-172.24
-116.31
-61.86
-8.24
45.44
99.42
152.2
200.41
239.85
266.96
280.49
281.92
274.79
263.33
250.99
239.8
230.38
222.5
215.69
209.52
203.66
197.73
191.3
183.9
175.18
164.97
153.32
140.56
127.17
113.64
100.39
87.59
75.23
63.1
51.06
39.06
27.21
15.72
4.77
-5.72
-16.09
-26.92
-38.82
-52.08
-66.4
-80.81
-93.75
-103.52
-108.78
-108.98
-104.57
-96.75
-87.14
-77.24
-68.08
-60.11
-53.31
-47.45
-42.31
-37.75
-33.58
-29.43
-24.7
-18.72
-11.08
-1.84
8.34
18.38
27.17
33.92
38.29
40.31
40.23
38.39
35.33
31.9
29.32
28.98
31.9
38.31
47.42
57.73
67.65
76.01
82.48
87.4
91.36
94.68
97.26
98.63
98.32
96.3
93.12
89.87
87.79
87.92
90.78
96.35
104.19
113.63
124.02
134.83
145.67
156.36
167.01
178.14
190.6
205.19
221.91
239.43
254.88
264.34
264
251.63
227.71
195.57
160.38
127.21
99.1
75.89
54.63
31.2
2.4
-32.49
-71.64
-111.78
-149.97
-185.05
-217.96
-251.03
-286.83
-327.36
-373.58
-425.07
-479.56
-532.45
-576.97
-605.5
-611.74
-592.8
-550.39
-490
-418.73
-342.77
-265.8
-188.65
-110.51
-30.75
49.52
126.73
195.48
250.12
286.77
304.83
307.04
298.15
282.51
262.38
237.82
208.14
173.97
138.32
105.56
79.14
59.28
42.45
23.13
-3.24
-37.94
-78.58
-120.73
-160.35
-195.71
-227.51
-257.7
-287.96
-318.97
-350.34
-381.07
-409.79
-434.48
-452.29
-459.78
-453.98
-433.61
-399.95
-356.37
-307.19
-256.09
-205.27
-155.41
-106.34
-57.86
-9.94
37.31
84.06
131.02
179.36
230.35
284.5
340.84
396.55
447.45
489.27
519.07
536.07
541.23
536.06
521.23
496.17
459.96
412.87
357.46
298.51
241.6
191.26
149.66
116.31
89.13
65.79
45.07
27.42
14.78
9.67
13.91
27.69
48.97
73.73
96.83
113.15
118.56
110.62
88.72
54.07
9.19
-42.48
-97.43
-152.84
-207.18
-260.4
-313.98
-370.35
-431.94
-499.57
-570.99
-640.17
-698.16
-735.66
-746.2
-728.6
-687.39
-630.82
-567.64
-504.31
-443.8
-386.31
-330.86
-276.76
-223.95
-172.58
-122.51
-73.09
-23.66
26.01
75.41
123.48
169.04
211.31
250.31
286.95
322.94
360.18
399.88
441.5
482.27
517.68
542.85
554.23
550.68
533.39
504.71
466.7
420.47
366.51
305.85
241.08
176.24
115.6
62.06
16.05
-24.17
-61.1
-96.33
-129.42
-158.14
-179.47
-191.24
-193.2
-187.32
-177.12
-166.55
-158.66
-154.84
-154.65
-156.23
-156.97
-154.28
-146.17
-131.62
-110.69
-84.39
-54.21
-21.64
12.25
46.95
82.2
117.48
151.58
182.49
207.81
225.46
234.29
234.3
226.49
212.57
194.82
176.11
159.67
148.28
143.12
142.82
143.36
139.37
126.35
102.89
71.6
38.3
9.76
-8.74
-15.02
-10.05
3.25
21.7
43.03
66.19
90.94
117.12
144
170.04
192.98
210.19
219.15
217.93
205.51
181.94
148.32
106.46
58.5
6.57
-47.67
-103.2
-159.61
-216.71
-273.75
-328.93
-379.05
-420.08
-448.07
-460.31
-455.93
-435.87
-402.21
-357.46
-304.2
-245.08
-183.07
-121.29
-62.59
-8.83
39.41
82.7
122.05
158.15
190.99
220.07
244.84
265.4
282.72
298.37
313.94
330.13
346.09
359.27
365.9
362.08
345.06
314.23
271.35
220.08
164.89
109.88
58.03
10.99
-30.65
-66.9
-97.94
-123.96
-145.15
-161.78
-174.26
-183.09
-188.78
-191.81
-192.47
-190.97
-187.5
-182.37
-176
-168.93
-161.52
-153.93
-145.99
-137.28
-127.47
-116.51
-104.83
-93.23
-82.57
-73.48
-66.11
-60.22
-55.35
-51.13
-47.34
-43.95
-40.96
-38.32
-35.87
-33.49
-31.1
-28.77
-26.62
-24.85
-23.56
-22.83
-22.64
-22.91
-23.51
-24.32
-25.29
-26.48
-28.06
-30.28
-33.29
-37.12
-41.51
-45.87
-49.28
-50.58
-48.61
-42.57
-32.35
-18.71
-3.23
12.05
25.18
34.77
40.16
41.56
39.72
35.76
30.91
26.26
22.69
20.62
20.03
20.46
21.25
21.81
21.9
21.68
21.53
21.86
22.75
23.89
24.77
24.86
23.94
22.15
19.93
17.78
16.11
15.12
14.82
15.11
15.91
17.15
18.79
20.86
23.37
26.42
30.09
34.35
38.98
43.47
47.07
49.03
48.89
46.65
42.8
38.08
33.13
28.22
23.22
17.81
11.79
5.28
-1.25
-7.17
-11.96
-15.43
-17.73
-19.24
-20.38
-21.5
-22.76
-24.17
-25.65
-27.09
-28.39
-29.55
-30.59
-31.6
-32.65
-33.72
-34.79
-35.84
-36.93
-38.21
-39.93
-42.32
-45.52
-49.47
-53.82
-57.86
-60.62
-60.96
-57.9
-50.96
-40.46
-27.61
-14.28
-2.46
6.33
11.42
13.03
11.97
9.26
5.78
2.15
-1.18
-3.85
-5.5
-5.8
-4.48
-1.45
3.17
9.07
15.74
22.6
29.07
34.71
39.26
42.68
44.96
46.1
46.06
44.82
42.52
39.49
36.24
33.24
30.79
28.91
27.39
25.98
24.49
22.93
21.42
20.11
19.04
18.14
17.18
15.93
14.2
11.97
9.37
6.63
4.07
1.91
0.32
-0.69
-1.2
-1.41
-1.51
-1.71
-2.15
-2.83
-3.69
-4.56
-5.3
-5.94
-6.61
-7.58
-9.04
-10.95
-12.97
-14.55
-15.2
-14.68
-13.22
-11.5
-10.38
-10.55
-12.22
-15.03
-18.09
-20.33
-20.84
-19.04
-14.8
-8.41
-0.38
8.57
17.63
25.96
32.69
37.05
38.41
36.45
31.44
24.45
17.42
12.84
13.09
19.49
31.82
48.45
66.84
84.47
99.48
111.03
119.66
127.84
140.14
162.42
199.64
252.93
317.42
382.62
435.66
466.17
470.31
451.84
419.62
383.29
349.4
320.1
294.46
270.98
249.43
230.95
216.72
206.6
198.59
189.61
177.02
159.89
139.21
117.53
97.57
81.13
68.41
58.11
48.14
36.64
22.72
6.79
-9.77
-25.22
-38.22
-48.39
-56.38
-63.64
-71.82
-82.19
-95.23
-110.45
-126.68
-142.56
-157.09
-170.15
-182.61
-196.08
-212.36
-232.7
-257.32
-285.25
-314.92
-344.65
-373.45
-401.37
-429.32
-458.8
-491.66
-529.88
-575.17
-627.88
-685.76
-743.12
-791.44
-821.63
-827.18
-806.74
-764.61
-708.87
-648.15
-588.7
-533.24
-481.7
-433.12
-387.12
-344.24
-305.19
-269.84
-236.96
-204.75
-171.88
-138.2
-104.84
-73.81
-46.97
-25.33
-8.83
3.45
12.65
19.5
23.99
25.39
22.71
15.34
3.44
-11.92
-29.02
-46.01
-61.32
-74.07
-83.99
-91.31
-96.36
-99.37
-100.36
-99.2
-95.81
-90.27
-82.91
-74.29
-65.08
-55.85
-47.06
-38.95
-31.65
-25.21
-19.65
-14.99
-11.23
-8.27
-5.91
-3.84
-1.61
1.29
5.36
11.06
18.72
28.5
40.41
54.26
69.71
86.27
103.35
120.29
136.39
151.03
163.71
174.09
182.06
187.69
191.22
192.97
193.24
192.27
190.14
186.84
182.26
176.34
169.06
160.52
150.87
140.28
128.83
116.52
103.28
89.09
74.15
58.88
43.93
30.02
17.75
7.37
-1.16
-8.13
-13.79
-18.12
-20.76
-21.01
-18.14
-11.66
-1.54
11.74
27.49
44.96
63.65
83.33
104
125.77
148.98
174.26
202.31
233.33
266.12
297.65
323.46
339.07
341.93
332.74
315.47
295.82
279.16
268.78
265.38
267.74
273.86
281.78
289.76
296.11
299.1
297.35
290.46
279.52
267.02
256.08
249.41
248.13
251.3
256.25
259.45
257.78
249.33
233.27
209.21
176.4
134.17
83.09
26.53
-28.94
-75.02
-104.53
-113.98
-104.43
-80.47
-48.08
-12.97
19.64
44.65
56.91
52.21
29.04
-10.28
-60.3
-114.88
-169.7
-222.91
-273.69
-319.66
-355.67
-374.96
-372.35
-347.34
-305.01
-253.99
-202.55
-155.31
-112.39
-71.03
-28.93
13.43
52.53
83.71
103.83
112.97
114.34
112.74
112.57
116.56
125.25
137.75
152.42
167.46
181.14
191.84
198.15
199.16
194.77
185.79
173.91
161.33
150.36
142.82
139.29
138.9
139.29
137.39
130.52
117.47
98.79
76.22
51.55
25.71
-1.32
-29.53
-57.64
-82.38
-99.2
-104.09
-95.53
-75.5
-48.82
-21.32
2.25
19.45
30.05
34.99
35.38
32.09
26.02
18.69
12.36
9.6
12.27
20.64
33.04
46.36
57.12
62.73
62.37
57.11
49.17
40.94
33.96
28.73
24.88
21.86
19.34
17.33
15.83
14.53
12.74
9.76
5.21
-0.62
-7.01
-13.17
-18.73
-23.76
-28.56
-33.16
-37.11
-39.48
-39.28
-35.97
-29.82
-21.86
-13.55
-6.23
-0.69
3.02
5.49
7.8
11.16
16.73
25.25
36.53
49.02
59.66
64.45
59.71
43.52
16.81
-16.62
-51.18
-81.29
-102.99
-114.78
-117.46
-113.36
-105.47
-96.83
-90.13
-87.26
-88.75
-93.21
-97.28
-96.38
-86.14
-64.05
-30.62
10.62
54.03
93.64
124.79
145.14
154.72
155.2
148.99
138.4
125.17
110.08
92.72
71.4
43.85
8.55
-33.53
-77.83
-116.71
-141.84
-147.48
-133.02
-103.47
-67.41
-33.56
-7.72
8.34
16.03
17.86
15.76
10.6
2.84
-6.5
-15.39
-21.33
-22.3
-17.62
-8.2
4
16.81
28.45
37.9
44.79
49.11
50.99
50.66
48.58
45.53
42.7
41.24
41.54
42.66
42.32
37.92
28.07
13.84
-1.21
-12.42
-16.29
-12.22
-2.83
7.37
14.01
14.46
8.18
-3.98
-20.75
-40.76
-62.23
-82.63
-98.95
-108.7
-110.97
-107.01
-99.51
-91.46
-84.83
-80.1
-76.59
-73.28
-69.53
-65.24
-60.63
-55.9
-51.07
-46.15
-41.4
-37.35
-34.64
-33.64
-34.19
-35.56
-36.78
-36.97
-35.74
-33.25
-30.07
-26.93
-24.38
-22.63
-21.55
-20.82
-20.09
-19.11
-17.72
-15.87
-13.56
-10.92
-8.12
-5.37
-2.82
-0.51
1.63
3.71
5.73
7.62
9.27
10.53
11.41
12
12.42
12.68
12.7
12.32
11.47
10.21
8.78
7.56
6.9
7.02
7.86
9.16
10.51
11.56
12.19
12.59
13.18
14.53
17.19
21.52
27.56
34.97
43.06
50.93
57.72
62.89
66.37
68.57
70.09
71.51
73.24
75.58
78.93
83.6
89.43
95.27
98.74
96.77
86.56
66.69
37.59
1.04
-40.78
-86.1
-133.46
-180.94
-225.4
-262.5
-287.86
-298.7
-295.03
-279.61
-256.68
-230.34
-203.37
-177.17
-152.36
-129.65
-110.13
-94.86
-84.15
-77.15
-71.99
-66.61
-59.55
-50.51
-40.39
-30.59
-22.28
-15.65
-9.67
-2.33
8.6
24.54
45.23
68.33
89.91
105.63
112.4
109.55
99.14
85.14
72.03
63.28
60.62
63.91
71.68
81.78
91.76
99.24
102.17
99.32
90.59
77.21
61.39
45.7
32.31
22.55
16.8
14.63
15.1
16.99
19
19.97
19.04
15.91
10.84
4.63
-1.72
-7.31
-11.67
-14.83
-17.23
-19.49
-22.05
-25
-27.93
-30.11
-30.75
-29.43
-26.33
-22.44
-19.34
-18.79
-22.2
-30.04
-41.55
-54.69
-66.53
-74.02
-74.87
-68.23
-54.97
-37.36
-18.32
-0.47
14.52
26.13
34.69
40.84
45.08
47.59
48.28
47.07
43.93
39.03
32.59
24.94
16.54
8.09
0.52
-5.12
-7.87
-7.14
-2.83
4.65
14.48
25.69
37.13
47.47
55.06
58.05
54.81
44.66
28.52
9.04
-10.05
-25.14
-34.07
-36.71
-34.77
-30.69
-26.4
-22.64
-18.97
-14.55
-9.01
-2.92
2.39
5.48
5.49
2.56
-2.38
-8.01
-13.28
-17.65
-21.18
-24.2
-26.91
-29.25
-30.85
-31.34
-30.61
-28.9
-26.69
-24.51
-22.67
-21.2
-19.95
-18.78
-17.75
-17.19
-17.54
-19.18
-22.16
-26.03
-29.95
-32.91
-34.06
-33.06
-30.17
-26.01
-21.29
-16.45
-11.57
-6.6
-1.61
2.93
6.23
7.5
6.32
2.84
-2.28
-8.1
-13.7
-18.11
-20.21
-18.84
-13.14
-3.27
9.13
21.17
29.61
32.15
28.31
19.48
8.17
-3.02
-12.17
-18.17
-20.47
-18.93
-14.02
-7.09
-0.39
3.48
2.72
-2.63
-10.53
-17.41
-19.41
-13.62
0.94
22.72
47.34
67.99
76.94
68.17
40.49
-0.72
-44.38
-77.4
-89.95
-79.45
-51.44
-16.67
13.87
33.35
40.84
39.78
34.84
29.02
22.73
14.81
4.42
-7.75
-19.48
-28.36
-33.22
-34.68
-34.78
-35.62
-37.96
-40.63
-41.12
-36.92
-26.94
-12.34
3.83
17.78
26.56
29.08
26.3
20.54
14.39
9.61
6.68
4.97
3.37
1.01
-2.22
-5.61
-7.83
-7.39
-3.08
5.57
18.02
32.68
47.24
59.2
66.48
67.91
63.39
53.82
40.75
26.13
11.97
0.11
-8.11
-12.14
-12.38
-10.09
-7.03
-4.8
-4.33
-5.54
-7.47
-8.57
-7.24
-2.3
6.53
18.41
31.36
42.65
49.49
49.84
43.04
29.98
12.73
-6.11
-24.08
-39.27
-50.44
-56.94
-58.62
-55.89
-49.78
-41.9
-34.24
-28.63
-26.28
-27.38
-31.05
-35.65
-39.35
-40.71
-39.15
-34.98
-29.12
-22.65
-16.33
-10.49
-5.1
-0.04
4.7
8.92
12.24
14.1
13.88
11.06
5.51
-2.12
-10.41
-17.31
-20.92
-20.08
-14.76
-5.84
5.45
18.09
31.49
45.13
57.99
68.27
73.68
72.37
63.94
49.87
33.16
17.17
4.42
-4.06
-8.67
-10.37
-9.89
-7.31
-2.45
4.48
12.3
19.02
22.57
21.71
16.58
8.57
-0.45
-8.9
-16
-21.63
-26.03
-29.4
-31.8
-33.36
-34.46
-35.78
-37.97
-41.27
-45.13
-48.16
-48.44
-44.19
-34.44
-19.65
-1.76
16.18
30.91
39.99
42.61
39.67
33.4
26.37
20.62
17.21
16.18
17.05
19.27
22.42
26.28
30.53
34.72
38.22
40.44
41.06
40.14
38.07
35.4
32.6
29.82
26.88
23.39
18.96
13.5
7.34
1.16
-4.27
-8.4
-11.11
-12.71
-13.76
-14.81
-16.24
-18.16
-20.48
-23.01
-25.58
-28.02
-30.16
-31.84
-32.79
-32.59
-30.81
-27.08
-21.4
-14.31
-6.87
-0.43
3.8
5.19
3.83
0.46
-3.82
-7.84
-10.62
-11.41
-9.69
-5.2
1.97
11.29
21.83
32.37
41.8
49.34
54.81
58.55
61.04
62.65
63.34
62.87
60.96
57.66
53.41
48.89
44.72
41.17
38.18
35.53
33.09
31.02
29.67
29.35
29.97
30.91
31.04
29.06
23.89
15.2
3.49
-9.86
-23.18
-34.93
-44.2
-50.82
-55.12
-57.58
-58.55
-58.21
-56.78
-54.79
-53.11
-52.81
-54.73
-59.13
-65.42
-72.37
-78.38
-81.95
-82.09
-78.45
-71.3
-61.38
-49.7
-37.28
-25.13
-14.09
-4.84
2.2
6.88
9.32
9.88
9.06
7.44
5.62
4.17
3.53
3.91
5.3
7.41
9.91
12.44
14.74
16.63
17.91
18.36
17.8
16.14
13.47
10.07
6.29
2.58
-0.55
-2.49
-2.54
-0.17
4.73
11.55
19.02
25.52
29.6
30.46
28.14
23.38
17.24
10.71
4.58
-0.68
-4.71
-7.24
-8.22
-7.95
-7.14
-6.83
-7.99
-11.04
-15.47
-19.88
-22.38
-21.29
-15.81
-6.43
5.21
16.9
26.65
33.29
36.74
37.73
37.36
36.72
36.63
37.64
40.07
43.92
48.64
53.12
55.98
56.19
53.69
49.59
45.76
44.04
45.4
49.59
55.55
61.96
68.06
73.75
79.44
85.53
92.14
98.98
105.62
111.85
117.82
124.03
131.03
139.09
147.96
156.78
164.29
169.14
170.34
167.5
160.99
151.69
140.68
128.86
116.71
104.28
91.5
78.37
65.11
51.93
38.66
24.5
8.22
-11.06
-33.09
-56.13
-77.25
-93.34
-102.24
-103.36
-97.65
-87.03
-73.93
-61.05
-51.37
-48.13
-54.26
-71.38
-99.03
-134.49
-173.69
-212.63
-248.68
-281.2
-311.23
-340.45
-369.95
-399.17
-425.61
-445.31
-454
-448.38
-427.29
-391.97
-345.52
-291.65
-233.34
-172.35
-109.59
-46.24
15.27
71.28
117.87
152.33
174.04
184.32
185.39
178.97
165.73
145.71
119.44
88.87
57.29
28.25
4.08
-15.02
-30.68
-45.3
-60.55
-76.74
-92.87
-107.26
-118.32
-124.81
-125.93
-121.29
-111.22
-97
-80.75
-64.82
-50.8
-38.93
-28.4
-18.54
-10.14
-5.69
-7.98
-17.97
-32.95
-46.57
-50.9
-39.48
-9.58
37.47
97.53
165.52
236.46
305.56
367.9
418.67
454.38
474.17
480.23
476.6
466.96
452.65
432.4
403.67
364.95
317.29
264.36
211.08
161.58
117.72
78.77
42.02
3.77
-39.66
-90.84
-150.01
-214.09
-276.43
-327.63
-357.78
-359.41
-330.13
-274.25
-202.53
-129.65
-70.13
-34.04
-24.17
-36.42
-62.87
-96.45
-134.38
-178.16
-230.19
-289.21
-347.84
-394.23
-417.13
-411.37
-380.13
-332.95
-280.98
-232.54
-191.53
-158.59
-133.26
-115.27
-103.78
-95.96
-86.51
-68.98
-38.67
4.8
56.82
109.55
154.76
186.77
203.9
208.2
204.05
196.2
188.54
183.56
182.51
185.64
192.26
200.74
208.41
212.13
209.14
198.2
179.99
156.79
131.44
106.35
82.84
61.21
41.07
21.71
2.48
-16.9
-35.97
-53.31
-66.7
-73.68
-72.46
-62.49
-44.54
-20.33
8
38
66.78
91.06
107.54
114.09
110.71
99.94
86.03
73.5
65.62
63.7
67.38
75.29
85.66
96.63
106.34
113.05
115.58
113.68
108.1
100.21
91.4
82.53
73.78
64.79
55.03
44.09
31.78
18.13
3.29
-12.52
-28.97
-45.6
-62.02
-78.21
-94.79
-113.12
-134.63
-159.95
-187.92
-215.3
-237.5
-250.1
-250.36
-237.94
-214.52
-182.67
-144.84
-103.06
-59.36
-16.37
22.74
54.96
78.51
93.55
101.91
106.11
108.26
109.41
109.57
108.32
105.44
101.26
96.7
93.16
92.21
95.28
103.32
116.49
133.84
153.29
171.63
185.07
190
183.94
166.35
138.83
104.64
67.42
30.03
-6.36
-42.3
-79.44
-119.67
-164.82
-216.62
-276.52
-344.73
-418.7
-492.23
-556.14
-600.97
-620.53
-614.26
-587.26
-547.63
-502.79
-456.81
-410.11
-361.25
-309.33
-255.33
-201.52
-149.82
-100.39
-51.59
-1.44
50.55
102.47
150.57
190.89
221.17
241.71
254.93
263.8
270.21
274.21
274.52
269.82
259.89
246.1
230.8
216.29
203.88
193.71
185.05
176.89
168.48
159.51
150.15
140.87
132.19
124.4
117.4
110.78
104.18
97.73
92.32
89.28
89.78
94.09
101.2
109.21
116.17
120.9
123.58
125.42
128.01
132.49
139.02
146.97
155.49
164.19
173.56
184.73
198.77
215.97
235.47
255.56
274.39
290.65
303.66
313.03
318.01
317.26
309.24
292.95
268.64
237.94
203.23
166.79
130.22
94.36
59.63
26.42
-4.88
-34.21
-62.08
-89.66
-118.29
-148.76
-180.83
-213.39
-244.78
-273.61
-299.4
-322.7
-345.14
-369.2
-397.95
-434.39
-479.99
-533.12
-588.01
-635.43
-665.21
-669.9
-647.61
-602.77
-544.15
-481.22
-420.69
-364.93
-312.73
-261.45
-209.15
-155.53
-101.54
-48.22
4.14
56.06
108.45
161.92
216.65
272.49
329.86
389.9
453.76
520.98
587.91
647.39
690.42
709.28
700.71
667.4
616.93
558.56
499.89
444.75
393.4
344.33
296.27
249.3
204.46
162.68
123.65
85.69
46.46
4.01
-42.34
-91.63
-141.66
-190.2
-235.79
-278.42
-319.49
-360.97
-404.63
-451.5
-502.05
-556.27
-613.35
-670.84
-723.92
-765.64
-788.54
-787.19
-760.38
-711.71
-648.14
-577.41
-505.69
-436.59
-371.76
-312.08
-258.39
-211.21
-169.86
-131.96
-93.93
-52.47
-6.14
44
94.95
143.06
185.89
223.17
257.03
291.34
330.49
377.76
433.45
493.5
549.48
590.28
605.5
589.22
542.09
471.26
387.35
300.47
216.99
138.54
63.05
-12.99
-92.15
-174.46
-256.58
-332.03
-392.46
-429.91
-439.36
-420.67
-378.84
-321.85
-257.83
-192.52
-128.47
-66.16
-5.81
51.81
105.99
157.12
207.09
257.77
308.46
354.2
386.35
395.51
375.46
326.02
252.8
164.59
69.87
-24.99
-115.39
-196.45
-262.12
-305.84
-323.14
-314.14
-283.86
-239.84
-188.39
-132.41
-71.92
-7.42
56.52
110.19
141.26
139.51
101.24
30.87
-60.54
-158.88
-250.62
-325.25
-376.41
-401.74
-402.27
-381.75
-345.54
-299.36
-248.3
-196.3
-146.36
-100.83
-61.58
-29.24
-2.68
21.12
46.38
77.34
116.8
165.02
218.99
271.97
314.74
337.82
334.78
305.1
254.99
195.65
139.5
96.23
70.42
61.85
67.56
84.34
110.25
144.82
188.13
239.68
297.48
357.55
413.9
459.21
486.39
490.71
471.45
432.31
379.94
321.53
262.34
204.64
148.28
92.03
34.85
-23.95
-84.85
-147.97
-212.18
-273.96
-327.04
-363.68
-377.19
-364.56
-327.73
-272.67
-206.98
-137.06
-66.69
2.85
71.31
137.84
200.28
255.53
300.72
334.42
357.06
370.38
376.16
375.01
365.64
345.66
313.26
268.82
215.51
158.34
101.95
48.35
-3.82
-57.99
-116.94
-180.28
-243.53
-299.17
-339.07
-357
-350.03
-318.96
-268.19
-205.02
-138.69
-78.8
-33.37
-7
0.05
-8.72
-27.81
-51.69
-76.18
-98.65
-117.42
-130.98
-137.82
-136.88
-128.04
-112.44
-92.24
-70.04
-48.26
-28.75
-12.51
0.22
9.79
16.72
21.5
24.51
26.41
28.26
31.68
38.51
50.06
66.34
85.7
105.02
120.54
129.09
129.07
120.93
106.65
88.82
69.6
50.38
31.86
14.67
-0.34
-12.1
-19.8
-23.37
-23.57
-21.68
-18.95
-16.13
-13.42
-10.65
-7.56
-3.98
0.03
4.24
8.27
11.61
13.8
14.51
13.74
11.69
8.74
5.25
1.6
-1.69
-3.85
-3.9
-0.96
5.36
14.59
25.46
36.2
45.19
51.45
54.93
56.26
56.21
55.11
52.56
47.68
39.65
28.28
14.32
-0.68
-14.85
-26.6
-35.02
-39.87
-41.35
-39.85
-35.77
-29.61
-22.08
-14.12
-6.86
-1.39
1.45
1.27
-1.77
-6.94
-13.2
-19.38
-24.57
-28.29
-30.61
-31.95
-32.83
-33.57
-34.23
-34.6
-34.5
-33.9
-32.98
-32.22
-32.34
-34.34
-39.37
-48.39
-61.68
-78.38
-96.54
-113.53
-126.83
-134.68
-136.19
-131.09
-119.39
-101.41
-77.96
-50.65
-21.84
5.65
29.07
46.25
55.91
57.74
52.53
42.18
29.48
17.75
9.93
7.75
11.25
18.95
28.57
38.06
46.2
52.75
58.16
62.97
67.32
70.68
71.92
69.69
63
51.7
36.57
19.25
1.71
-14.21
-27.32
-37.14
-43.89
-48.14
-50.55
-51.66
-51.8
-51.27
-50.33
-49.23
-48.09
-46.65
-44.27
-40.19
-33.88
-25.49
-16
-6.96
0.19
4.68
6.78
7.61
8.78
11.75
17.46
26.14
37.26
49.55
61.23
70.25
75.03
75.06
71.34
66.08
61.73
59.69
59.39
58.15
52.03
37.33
12.05
-23.32
-65.76
-110.65
-153.16
-189.53
-217.89
-238.13
-251.06
-257.24
-256.18
-246.29
-225.68
-193.41
-150.41
-99.72
-45.85
6.35
52.89
91.28
120.7
141.71
155.71
164.39
169.31
171.61
172.06
171.12
169.14
166.46
163.35
159.93
156.29
152.63
149.46
147.39
146.68
146.63
145.4
140.3
128.65
108.83
81
47.16
10.59
-25.1
-57.2
-84.65
-108.53
-131.8
-158.41
-191.61
-232.24
-277.35
-320.25
-352.18
-365
-353.9
-318.79
-264.07
-197.04
-125.86
-57.8
1.74
49.46
84.21
106.76
119.39
125.13
126.7
125.55
121.48
113.16
99.29
79.75
56.16
31.6
9.68
-6.53
-15.24
-16.1
-9.98
1.43
16.21
32.34
48
61.64
72.03
78.22
79.39
74.92
64.49
48.36
27.82
5.34
-15.68
-31.57
-39.37
-37.66
-26.91
-9.34
11.87
33.44
52.83
68.57
80.14
87.57
90.92
89.85
83.69
71.68
53.55
30.15
3.71
-22.46
-44.69
-60.1
-67.44
-67.43
-62.2
-54.21
-45.21
-35.7
-25.2
-12.98
1.1
16.17
30.37
41.28
46.44
43.84
32.58
13.3
-11.42
-37.45
-59.97
-74.84
-79.89
-75.38
-63.56
-47.55
-30.07
-12.82
3.46
18.29
30.87
39.81
43.56
41.17
32.9
20.37
6.09
-7.37
-18.19
-25.76
-30.58
-33.81
-36.62
-39.7
-43.04
-46.01
-47.53
-46.47
-41.93
-33.5
-21.47
-6.72
9.41
25.57
40.69
54.11
65.46
74.32
79.97
81.44
77.9
69.2
56.31
41.15
26.15
13.42
4.27
-1.06
-3.04
-2.42
0.11
4.03
8.71
13.24
16.36
16.73
13.46
6.48
-3.27
-14.11
-24.17
-32.08
-37.31
-40.21
-41.62
-42.32
-42.66
-42.37
-40.79
-37.11
-30.69
-21.19
-8.79
5.56
20.02
31.9
38.25
36.81
27.01
10.53
-8.99
-27.08
-39.89
-45.46
-44.08
-37.94
-29.96
-22.7
-17.52
-14.46
-12.62
-10.93
-8.71
-5.96
-3.31
-1.55
-1.29
-2.77
-5.96
-10.71
-16.64
-22.92
-27.84
-28.99
-23.95
-11.54
7.1
28.34
47.06
58.72
61.2
55.77
46.36
37.8
33.71
35.35
41.68
50.55
60.05
69.34
78.4
87.01
93.7
95.38
88.21
69.33
38.5
-1.02
-43.31
-81.68
-111.06
-129.39
-137.43
-137.26
-130.44
-117.08
-96.35
-68.09
-34.25
0.8
31.49
53.18
63.94
65.11
60.27
53.5
47.67
43.82
41.55
40.05
38.97
38.64
39.55
41.63
43.83
44.32
41.32
34.05
23.22
10.92
-0.18
-7.8
-10.71
-8.97
-3.62
3.91
12.3
20.58
28.2
34.9
40.54
44.96
47.85
48.8
47.31
43.07
36.14
26.95
16.19
4.37
-8.4
-22.32
-37.39
-52.9
-67.14
-77.86
-83.14
-82.32
-76.35
-67.37
-57.73
-48.96
-41.32
-34.08
-26.11
-16.58
-5.25
7.49
20.81
33.62
44.64
52.58
56.53
56.18
52.07
45.42
37.81
30.59
24.53
19.62
15.12
9.94
3.08
-5.9
-16.62
-27.72
-37.21
-43.07
-44
-40.17
-33.37
-26.59
-22.98
-24.61
-31.63
-42.16
-53.12
-61.43
-65.11
-63.79
-58.38
-50.29
-40.66
-30.1
-18.85
-7.29
3.86
13.53
20.68
24.63
25.21
22.59
17.09
8.93
-1.6
-14.06
-27.52
-40.56
-51.47
-58.56
-60.6
-57.01
-47.97
-34.27
-17.15
1.79
20.54
36.82
48.28
53.07
50.47
41.21
27.42
12.01
-2.25
-13.46
-20.88
-24.69
-25.38
-23.32
-18.63
-11.43
-2.35
7.28
15.48
20.31
20.54
16.24
8.75
0.17
-7.39
-12.55
-14.98
-15.13
-13.76
-11.42
-8.26
-4.14
1.08
7.22
13.74
19.8
24.43
26.81
26.45
23.31
17.87
10.97
3.71
-2.89
-8.03
-11.3
-12.63
-12.18
-10.25
-7.14
-3.21
1.01
4.7
6.77
6.09
1.84
-6.05
-16.83
-28.94
-40.42
-49.34
-54.16
-53.96
-48.38
-37.6
-22.28
-3.68
16.29
35.05
49.65
57.38
56.63
47.48
31.91
13.29
-4.59
-18.64
-27.2
-30.18
-28.56
-23.72
-16.84
-8.81
-0.41
7.32
12.95
14.89
12.08
4.52
-6.47
-18.52
-28.98
-35.83
-38.23
-36.51
-31.62
-24.42
-15.35
-4.56
7.44
19.41
29.29
34.9
34.98
29.82
21.34
12.37
5.62
2.69
3.75
7.78
13.29
18.91
23.77
27.44
29.73
30.49
29.49
26.62
22.03
16.29
10.33
5.17
1.5
-0.63
-1.88
-3.28
-5.64
-9.04
-12.68
-15.12
-14.98
-11.43
-4.58
4.77
15.48
26.44
36.65
44.94
49.81
49.58
42.94
29.73
11.48
-8.62
-26.64
-39.02
-43.75
-40.8
-31.82
-19.26
-5.36
8.35
21.1
32.49
42.04
49.1
52.96
53.22
50.08
44.34
37.26
30.06
23.72
18.78
15.34
13.17
11.9
11.1
10.38
9.48
8.17
6.29
3.74
0.45
-3.48
-7.82
-12.22
-16.43
-20.35
-24.2
-28.36
-33.23
-38.96
-45.25
-51.31
-56.03
-58.17
-56.73
-51.15
-41.51
-28.61
-13.89
0.69
13.05
21.4
24.65
22.74
16.69
8.29
-0.29
-7.2
-11.18
-11.83
-9.42
-4.61
1.85
9.29
17.13
24.82
31.72
37.18
40.67
41.97
41.23
38.9
35.5
31.45
26.96
22.22
17.55
13.56
11.06
10.82
13.21
17.97
24.16
30.32
34.76
35.83
32.3
23.73
10.75
-5.03
-21.37
-36.05
-47.47
-55.08
-59.11
-60.21
-58.78
-54.84
-48.18
-38.95
-28.22
-18.16
-11.62
-11.38
-19.23
-35.32
-57.99
-84.08
-109.88
-132.12
-148.92
-160.05
-166.69
-170.59
-173.09
-174.51
-173.98
-169.96
-161.04
-146.73
-127.9
-106.67
-85.79
-67.7
-53.58
-43
-34.18
-24.92
-13.86
-1.24
11.23
21.27
27.36
29.63
30.01
31.59
37.4
49.46
68.27
92.97
121.74
152.36
182.47
209.75
232.01
247.43
254.85
254.16
246.47
233.96
219.34
205.12
192.91
183.16
175.38
168.68
162.3
155.72
148.54
140.24
130.02
117
100.52
80.46
57.28
32.08
6.56
-17.03
-36.12
-48.26
-51.9
-47.09
-35.59
-20.47
-4.97
8.5
18.92
26.43
31.47
33.83
32.36
25.38
11.7
-8.36
-32.53
-57.17
-78.38
-93.32
-101.02
-102.46
-99.86
-95.8
-92.38
-90.82
-91.4
-93.51
-95.77
-96.28
-93.07
-84.92
-72.12
-56.93
-43.1
-34.71
-34.46
-42.4
-55.6
-69.05
-77.57
-77.63
-68.52
-52.18
-32.05
-11.52
7.2
23.28
36.91
48.41
57.85
64.95
69.41
71.16
70.29
66.85
60.6
51.13
38.26
22.54
5.49
-10.65
-23.51
-31.41
-33.88
-31.74
-26.65
-20.5
-14.78
-10.32
-7.21
-5.06
-3.21
-1.09
1.52
4.31
6.34
6.31
3.05
-3.84
-13.58
-24.22
-33.16
-38.03
-37.47
-31.48
-21.32
-8.98
3.32
13.6
20.42
23.21
22.42
19.64
17.19
17.25
20.85
27.16
33.49
36.38
33
22.45
6.11
-13
-31.54
-47.12
-58.76
-66.75
-71.75
-74.11
-73.57
-69.41
-60.97
-48.07
-31.21
-11.59
9
28.35
43.99
53.69
56.01
50.87
39.74
25.36
10.96
-0.75
-8.19
-11.17
-10.53
-7.49
-3.18
1.65
6.69
11.9
17.34
23.09
29.06
34.81
39.54
42.18
41.71
37.67
30.47
21.39
12.26
4.86
0.45
-0.4
2.23
7.94
16.2
26.48
38.27
51.04
64.25
77.42
90.08
101.7
111.65
119.2
123.91
125.88
126.17
126.65
129.55
136.77
149.2
166.59
187.9
212.15
238.96
268.4
300.06
332.01
360.19
379.39
384.68
373.49
346.64
308
262.97
216.42
171.34
128.36
86.64
44.66
1.11
-44.67
-92.66
-142.19
-192.28
-241.69
-289.57
-335.22
-378.8
-421.31
-464.54
-510.87
-562.39
-619.53
-679.57
-736.54
-780.73
-802.97
-797.65
-764.86
-710.34
-642.81
-570.25
-497.28
-425.87
-353.94
-281.25
-209.72
-142.8
-83.4
-31.77
15.08
62.01
111.7
168.03
230.32
295.26
358.18
413.95
457.64
485.05
493.23
478.71
444.64
393.68
329.4
255.39
174.61
89.15
0.81
-72.85
-143.57
-201.91
-240.76
-256.38
-251.56
-236.4
-225.37
-231.22
-258.75
-304.09
-350.32
-380.98
-385.35
-362.54
-320.13
-268.88
-216.81
-166.15
-116.34
-62.48
-4.21
55
109.57
154.98
190.12
217.7
242.16
265.81
290.1
312.07
326.9
330.56
321.9
303.34
279.88
256.93
237.76
223.89
213.81
204.82
194.64
182.63
169.93
158.84
151.49
148.52
149.14
150.91
150.96
147.34
140.08
131.38
124.98
124.5
131.91
146.39
164.43
180.9
190.6
189.41
175.06
147.53
109.35
65.76
24.04
-8.29
-26.11
-28.99
-21.83
-13.33
-12.4
-24.94
-52.12
-91.16
-137.89
-189.53
-245.93
-308.67
-378.46
-452.63
-524.16
-583.09
-619.94
-629.22
-611.61
-573.56
-524.39
-472.53
-422.85
-376.15
-330.85
-285.39
-239.9
-196.1
-155.97
-120.16
-87.36
-55.07
-21.03
15.52
53.44
90.36
124.25
154.86
184.11
214.87
248.82
284.48
316.83
338.78
343.86
328.82
294.73
246.52
191.19
135.98
87.27
50.13
28.12
22.93
33.76
57.12
87.54
119.16
147.44
170.38
188.35
203.01
216.1
228.5
240.09
250.09
257.51
261.53
261.53
256.99
247.72
234.12
217.29
198.71
179.68
160.63
140.96
119.42
94.75
66.35
34.46
0.11
-34.74
-66.93
-92.08
-105.31
-103.02
-84.79
-54.34
-18.74
14.31
39.34
54.92
63.13
67.46
70.34
71.83
70.26
64.06
53.42
40.65
29.08
21.33
18.2
18.71
21.06
23.86
26.57
29.33
32.32
35.15
36.91
36.59
33.56
27.89
20.21
11.33
1.99
-7.28
-16
-23.67
-30.04
-35.12
-39.22
-42.68
-45.7
-48.14
-49.59
-49.69
-48.29
-45.59
-41.99
-38.02
-34.07
-30.36
-26.97
-23.89
-21.21
-19.05
-17.68
-17.34
-18.18
-20.18
-23.13
-26.64
-30.24
-33.51
-36.12
-37.93
-39
-39.58
-40.07
-40.91
-42.43
-44.8
-47.86
-51.12
-53.81
-55.07
-54.2
-50.98
-45.78
-39.45
-32.97
-27
-21.7
-16.74
-11.71
-6.44
-1.25
3.18
6.24
7.77
8.31
8.89
10.59
14.04
19.02
24.51
29.05
31.41
31.12
28.9
26.44
25.89
29
36.26
46.51
57.07
64.71
66.83
62.68
53.88
44.01
37.38
37.35
44.91
58.19
73.08
84.41
87.55
79.55
59.95
31.05
-2.28
-33.5
-55.83
-64.09
-56.2
-33.77
-1.42
34.81
69.31
98.14
119.36
132.55
138.2
137.37
131.61
122.99
113.59
104.91
97.08
88.73
77.42
60.62
37.02
7.36
-25.34
-56.62
-81.91
-97.95
-103.75
-100.71
-92
-81.41
-72.27
-66.83
-66.22
-70.91
-81.21
-97.67
-121.07
-152.34
-192.14
-240.37
-295.36
-353.19
-407.68
-451.4
-477.34
-481.06
-461.86
-422.6
-368.15
-303.55
-232.94
-159.82
-88.36
-24.21
25.95
56.53
65.66
56.93
38.82
21.81
14.5
20.56
37.91
60.53
81.61
96.44
103.58
104.21
100.38
93.56
84.22
72.45
58.88
45.13
33.24
24.63
19.43
16.68
15.14
14.23
14.19
15.58
18.5
22.23
25.39
26.75
25.87
23.32
20.21
17.6
15.91
14.93
14.1
12.98
11.53
9.98
8.53
7.03
4.97
1.75
-2.86
-8.4
-13.72
-17.27
-17.7
-14.4
-7.78
0.89
9.9
17.75
23.63
27.46
29.74
31.11
31.93
32.23
31.78
30.42
28.23
25.59
23.05
21.02
19.66
18.88
18.45
18.16
17.92
17.76
17.72
17.78
17.8
17.57
16.86
15.54
13.6
11.18
8.54
6.01
3.96
2.58
1.97
2.03
2.54
3.22
3.81
4.04
3.6
2.16
-0.6
-4.82
-10.27
-16.16
-21.26
-24.26
-24.16
-20.72
-14.48
-6.63
1.49
8.72
14.3
17.92
19.59
19.44
17.76
14.97
11.69
8.64
6.53
5.81
6.59
8.57
11.2
13.92
16.36
18.41
20.21
21.99
23.85
25.76
27.5
28.84
29.66
29.95
29.81
29.39
28.77
27.99
27.03
25.89
24.61
23.3
22.09
21.11
20.45
20.11
20.06
20.2
20.43
20.62
20.63
20.33
19.55
18.18
16.17
13.55
10.53
7.39
4.48
2.03
0.17
-1.21
-2.36
-3.6
-5.21
-7.34
-9.87
-12.58
-15.07
-17.03
-18.26
-18.77
-18.71
-18.34
-17.87
-17.43
-17.05
-16.71
-16.41
-16.18
-16.04
-15.97
-15.92
-15.87
-15.92
-16.32
-17.4
-19.42
-22.38
-25.89
-29.11
-30.89
-30.15
-26.15
-18.88
-9.04
2.07
13.04
22.69
30.35
35.78
39.01
40.11
39.21
36.55
32.64
28.23
24.12
20.94
18.93
18
17.88
18.34
19.29
20.75
22.72
25.13
27.71
30.14
32.08
33.21
33.27
32.18
30.02
27.1
23.89
20.92
18.6
17.16
16.55
16.55
16.88
17.3
17.62
17.68
17.34
16.43
14.82
12.46
9.45
5.98
2.35
-1.17
-4.33
-7.06
-9.38
-11.34
-13.07
-14.59
-15.89
-16.93
-17.68
-18.14
-18.41
-18.59
-18.79
-19.08
-19.53
-20.16
-20.99
-21.98
-23.08
-24.17
-25.24
-26.35
-27.71
-29.52
-31.82
-34.33
-36.37
-37.02
-35.44
-31.2
-24.49
-16.17
-7.43
0.52
6.8
11.01
13.14
13.46
12.33
10.2
7.55
4.94
2.85
1.6
1.2
1.36
1.67
1.83
1.69
1.39
1.15
1.2
1.67
2.57
3.82
5.27
6.77
8.1
9.05
9.49
9.38
8.78
7.82
6.72
5.65
4.78
4.21
3.97
3.98
4.08
4.12
4.03
3.87
3.77
3.91
4.39
5.13
5.97
6.69
7.16
7.31
7.16
6.73
6
4.9
3.41
1.6
-0.36
-2.2
-3.75
-4.91
-5.85
-6.85
-8.36
-10.78
-14.4
-19.27
-25.09
-31.19
-36.62
-40.26
-41.22
-38.98
-33.67
-26.03
-17.25
-8.72
-1.65
3.17
5.5
5.56
3.85
1.01
-2.34
-5.59
-8.19
-9.74
-10.05
-9.24
-7.74
-6.02
-4.46
-3.07
-1.6
0.33
2.89
5.99
9.27
12.22
14.49
15.84
16.18
15.48
13.75
11.07
7.68
4.01
0.57
-2.14
-3.82
-4.4
-4.05
-3.07
-1.77
-0.41
0.91
2.17
3.41
4.58
5.5
5.87
5.39
3.9
1.48
-1.51
-4.6
-7.3
-9.38
-10.91
-12.21
-13.74
-15.85
-18.56
-21.59
-24.44
-26.65
-28.04
-28.82
-29.46
-30.36
-31.45
-32
-30.74
-26.33
-18.06
-6.32
7.29
20.37
30.49
35.9
36.11
31.9
25.14
18.52
15.26
18.55
30.58
51.19
77.19
102.68
120.92
126.92
119.61
102.36
81.33
62.82
50.68
45.29
44.44
45.14
45.31
44.4
42.74
40.58
37.48
32.33
24.18
12.92
-0.33
-13.49
-24.25
-30.87
-32.9
-31.17
-27.46
-23.72
-21.21
-20.07
-19.32
-17.43
-13.07
-5.81
3.62
13.57
22.03
27.45
29.25
28.26
26.68
27.79
34.9
50.03
72.6
98.77
122.17
135.64
133.37
112.7
74.98
25.4
-27.98
-75.78
-109.33
-122.76
-114.53
-87.91
-49.85
-8.66
28.5
57.24
75.97
84.65
83.58
72.87
53.09
26.26
-3.86
-32.47
-55.31
-70.1
-77.04
-78.26
-76.55
-74.01
-71.21
-67.37
-61.24
-52.34
-41.76
-32.21
-27.05
-29.05
-39.31
-56.92
-79.71
-105.13
-131.03
-155.77
-177.83
-195.48
-206.92
-210.89
-207.38
-197.93
-185.23
-172.12
-160.65
-151.58
-144.61
-139.08
-134.72
-132.04
-132.15
-136.22
-144.91
-157.9
-173.85
-190.7
-206.05
-217.61
-223.34
-221.67
-211.58
-192.86
-166.38
-134.09
-98.85
-63.8
-31.67
-4.19
18.05
35.46
49
59.78
68.83
77.06
85.24
93.97
103.63
114.16
125.18
136.17
146.74
156.94
167.26
178.38
190.65
203.76
216.63
227.78
235.86
240.33
241.65
241.13
240.22
239.85
239.86
238.93
234.94
225.72
209.8
187
158.64
127.23
95.68
66.29
40.13
16.72
-5.29
-27.19
-49.24
-70.33
-88.54
-102.27
-111.42
-117.82
-124.62
-134.93
-150.28
-169.89
-190.89
-209.44
-222.03
-226.33
-221.54
-208.49
-189.96
-170.54
-155.94
-151.2
-158.29
-174.62
-193.32
-205.74
-204.84
-187.81
-156.23
-114
-64.61
-9.75
49.9
112.37
172.57
222.56
253.7
259.87
239.7
197.13
140.41
80.47
28.88
-4.26
-12.66
4.22
40.57
85.48
126.35
152.91
160.12
149
124.92
95.05
66.23
44.03
32.86
36.13
55.86
91.79
140.63
196.32
251.33
298.74
334.12
356.4
367.43
370.71
369.5
365.52
358.42
346.32
326.92
298.81
262.12
218.43
170.13
119.69
69.47
21.98
-19.72
-52.12
-72.27
-79.14
-74.75
-64.06
-53.63
-49.34
-54.71
-70.41
-95.26
-127.85
-167.18
-212.15
-259.98
-305.25
-340.56
-358.93
-356.76
-335.62
-301.85
-264.06
-229.85
-203.42
-185.29
-173.45
-165.19
-158.27
-150.99
-141.75
-128.59
-109.68
-84.12
-52.82
-18.51
14.83
43.14
63.4
74.08
75.09
67.41
52.67
32.88
10.4
-12.28
-32.99
-50.39
-64.37
-75.94
-86.61
-97.39
-107.93
-116.19
-119.02
-113.31
-97.15
-70.68
-35.99
3.46
43.97
82.53
117.44
148.46
176.37
202.38
227.17
250.31
269.97
283.23
286.84
278.2
255.99
220.35
172.87
116.47
55.56
-4.06
-55.97
-94.69
-117.43
-124.88
-120.6
-109.06
-93.5
-75.03
-53.17
-27.78
-0.46
25.26
45.35
57.2
60.83
58.57
53.58
48.34
43.9
40.29
37.13
34.2
31.21
27.69
22.87
16.06
7.07
-3.99
-17.25
-33.7
-55.23
-83.5
-118.55
-157.73
-196
-227.4
-247.17
-253.2
-246.31
-229.43
-206.01
-178.96
-150.11
-120.36
-89.91
-58.65
-26.34
7.05
40.96
74.12
104.42
129.43
147.16
157.03
160.27
159.53
157.7
156.2
153.99
147.61
132.4
104.21
60.97
3.6
-63.69
-133.71
-197.19
-244.35
-267.08
-261.37
-228.83
-176.67
-115.64
-56.91
-8.85
24.52
43.37
50.59
50
45.26
39.41
34.88
33.43
35.87
41.82
49.81
57.7
63.43
65.91
65.37
63.28
61.78
62.76
67.13
74.49
83.44
92.29
99.83
105.72
110.4
114.51
118.19
120.7
120.59
116.28
106.76
91.97
72.76
50.44
26.37
1.65
-22.78
-46.09
-67.46
-86.14
-101.59
-113.67
-122.57
-128.63
-132.23
-133.45
-132.12
-127.92
-120.69
-110.77
-99.16
-87.47
-77.51
-70.79
-67.93
-68.43
-70.84
-73.27
-74
-71.96
-66.96
-59.53
-50.6
-41.14
-31.92
-23.43
-15.93
-9.62
-4.58
-0.8
1.98
4.24
6.6
9.49
13.07
17.16
21.41
25.64
29.9
34.48
39.7
45.59
51.81
57.69
62.45
65.51
66.67
66.08
64.19
61.49
58.35
54.99
51.46
47.72
43.78
39.69
35.6
31.59
27.71
23.96
20.28
16.66
13.16
9.93
7.1
4.78
3.03
1.83
1.12
0.81
0.77
0.87
0.96
0.85
0.4
-0.52
-1.94
-3.81
-6
-8.44
-11.14
-14.21
-17.84
-22.19
-27.23
-32.71
-38.07
-42.53
-45.24
-45.44
-42.71
-37.12
-29.27
-20.2
-11.09
-2.99
3.41
7.9
10.67
12.09
12.54
12.35
11.77
11.02
10.38
10.12
10.43
11.37
12.83
14.56
16.27
17.71
18.73
19.3
19.52
19.54
19.51
19.46
19.33
18.99
18.35
17.45
16.45
15.55
14.92
14.57
14.41
14.26
13.99
13.57
13.02
12.41
11.79
11.12
10.3
9.26
7.96
6.42
4.67
2.79
0.76
-1.43
-3.78
-6.23
-8.65
-10.87
-12.77
-14.36
-15.8
-17.32
-19.12
-21.22
-23.51
-25.72
-27.62
-29.05
-29.99
-30.53
-30.77
-30.76
-30.5
-29.96
-29.17
-28.32
-27.77
-27.92
-29.11
-31.49
-34.92
-39.08
-43.53
-47.82
-51.5
-54.11
-55.12
-54.11
-50.86
-45.53
-38.7
-31.18
-23.78
-17.09
-11.42
-6.89
-3.59
-1.61
-1.05
-1.86
-3.75
-6.26
-8.96
-11.62
-14.35
-17.44
-21.12
-25.34
-29.68
-33.39
-35.78
-36.37
-35.04
-31.88
-27.08
-20.74
-12.93
-3.83
6.16
16.26
25.58
33.25
38.8
42.16
43.63
43.66
42.83
41.79
41.41
42.62
46.17
52.12
59.61
67.07
72.93
76.43
78.2
80.02
84.03
91.77
103.52
118.31
134.41
149.86
162.85
171.73
174.99
171.43
160.53
142.76
119.72
93.71
67.14
41.94
19.29
-0.35
-16.97
-30.75
-41.9
-50.56
-56.86
-60.94
-63
-63.41
-62.63
-61.28
-59.93
-59.04
-58.82
-59.13
-59.59
-59.59
-58.57
-56.11
-52.2
-47.27
-42.1
-37.59
-34.48
-33.17
-33.62
-35.47
-38.21
-41.41
-44.81
-48.36
-52.21
-56.55
-61.51
-66.92
-72.25
-76.56
-78.78
-77.97
-73.64
-65.97
-55.69
-43.92
-31.77
-20.18
-9.73
-0.64
7.03
13.36
18.35
22
24.24
25.14
24.88
23.76
22.2
20.61
19.34
18.62
18.54
19.03
19.81
20.45
20.38
19.05
16.13
11.66
6.12
0.33
-4.75
-8.33
-10.02
-9.96
-8.77
-7.32
-6.4
-6.45
-7.34
-8.51
-9.18
-8.75
-7.04
-4.33
-1.33
1.16
2.44
2.12
0.13
-3.15
-7
-10.36
-11.99
-10.72
-5.81
2.78
14.33
27.54
40.81
52.75
62.38
69.24
73.3
74.8
74.14
71.81
68.37
64.41
60.43
56.67
53.08
49.39
45.28
40.59
35.46
30.3
25.59
21.71
18.78
16.65
14.97
13.28
11.21
8.47
5.02
1
-3.24
-7.24
-10.53
-12.75
-13.8
-13.81
-13.14
-12.29
-11.77
-11.99
-13.17
-15.28
-18.04
-20.97
-23.48
-25
-25.15
-23.83
-21.33
-18.22
-15.3
-13.31
-12.77
-13.74
-15.81
-18.18
-19.8
-19.65
-17.02
-11.72
-4.19
4.61
13.45
21.16
26.97
30.61
32.2
32.06
30.45
27.53
23.42
18.39
12.92
7.72
3.48
0.68
-0.49
-0.16
1.41
3.92
7.11
10.71
14.36
17.61
19.97
21.05
20.68
18.94
16.14
12.69
8.98
5.32
1.84
-1.54
-5.03
-8.84
-13.09
-17.62
-21.98
-25.59
-27.96
-28.83
-28.36
-26.97
-25.24
-23.68
-22.67
-22.39
-22.86
-23.95
-25.46
-27.09
-28.6
-29.82
-30.79
-31.76
-33.02
-34.82
-37.09
-39.43
-41.06
-41.13
-38.89
-33.98
-26.53
-17.14
-6.75
3.64
13.08
20.88
26.64
30.26
31.95
32.14
31.43
30.39
29.5
29.02
28.99
29.26
29.55
29.57
29.03
27.72
25.52
22.38
18.39
13.8
8.96
4.33
0.37
-2.61
-4.52
-5.54
-5.98
-6.23
-6.61
-7.3
-8.28
-9.39
-10.37
-10.91
-10.73
-9.55
-7.18
-3.52
1.4
7.41
14.18
21.15
27.64
32.92
36.38
37.71
37.02
34.79
31.67
28.34
25.28
22.73
20.76
19.32
18.36
17.75
17.26
16.46
14.83
11.88
7.37
1.46
-5.36
-12.41
-19.08
-25
-30.11
-34.47
-38.18
-41.26
-43.61
-45.2
-46.12
-46.7
-47.45
-48.96
-51.59
-55.3
-59.47
-62.92
-64.13
-61.67
-54.67
-43.16
-28.16
-11.41
5.1
19.64
31.09
38.96
43.28
44.4
42.88
39.4
34.84
30.12
26.1
23.38
22.14
22.18
23.08
24.37
25.7
26.87
27.79
28.33
28.38
27.76
26.33
24.06
21.03
17.43
13.47
9.31
4.97
0.42
-4.34
-9.13
-13.46
-16.67
-18.07
-17.27
-14.25
-9.48
-3.68
2.29
7.69
11.95
14.66
15.67
15.04
13.07
10.24
7.02
3.81
0.79
-2.04
-4.84
-7.71
-10.66
-13.52
-15.95
-17.57
-18.11
-17.51
-16.05
-14.22
-12.61
-11.65
-11.53
-12.21
-13.46
-15.04
-16.82
-18.82
-21.18
-24.11
-27.73
-32.02
-36.62
-40.83
-43.74
-44.46
-42.44
-37.64
-30.64
-22.36
-13.9
-6.22
-0.03
4.35
6.92
7.98
8.01
7.54
7.04
6.78
6.85
7.2
7.78
8.61
9.83
11.59
13.96
16.8
19.78
22.47
24.46
25.46
25.34
24.12
21.88
18.71
14.77
10.3
5.67
1.39
-2.02
-4.18
-4.93
-4.42
-3.03
-1.26
0.36
1.41
1.56
0.68
-1.17
-3.7
-6.42
-8.86
-10.68
-11.87
-12.75
-13.8
-15.46
-17.93
-21.01
-24.18
-26.68
-27.65
-26.29
-22.11
-15.01
-5.48
5.46
16.44
26.09
33.39
37.89
39.77
39.59
38.06
35.75
33.01
30.01
26.88
23.82
21.12
19.04
17.7
17.02
16.75
16.61
16.39
16.01
15.51
14.88
14.01
12.72
10.89
8.47
5.65
2.71
-0.01
-2.31
-4.15
-5.63
-6.96
-8.33
-9.89
-11.67
-13.6
-15.47
-17
-17.95
-18.21
-17.88
-17.31
-16.98
-17.41
-18.96
-21.7
-25.35
-29.25
-32.48
-34.11
-33.42
-30.21
-24.79
-17.98
-10.82
-4.26
1.01
4.71
6.86
7.67
7.45
6.51
5.15
3.68
2.35
1.37
0.88
0.93
1.47
2.36
3.45
4.56
5.59
6.52
7.36
8.12
8.75
9.11
9.01
8.26
6.82
4.75
2.29
-0.24
-2.54
-4.36
-5.6
-6.24
-6.34
-5.94
-5.07
-3.77
-2.08
-0.16
1.76
3.47
4.79
5.7
6.27
6.59
6.73
6.68
6.37
5.71
4.71
3.49
2.26
1.21
0.46
-0.09
-0.69
-1.62
-3.07
-5
-7.16
-9.21
-10.9
-12.19
-13.27
-14.44
-15.95
-17.87
-20.08
-22.3
-24.29
-25.97
-27.39
-28.79
-30.41
-32.48
-35.18
-38.55
-42.48
-46.58
-50.16
-52.21
-51.68
-47.81
-40.51
-30.45
-18.99
-7.74
1.93
9.2
13.91
16.37
17.16
16.83
15.88
14.67
13.58
12.92
12.93
13.75
15.35
17.52
19.99
22.42
24.52
26.1
27.1
27.57
27.68
27.6
27.47
27.32
27.05
26.52
25.6
24.27
22.6
20.8
19.06
17.57
16.4
15.58
15.05
14.71
14.42
14.08
13.6
12.96
12.18
11.31
10.39
9.44
8.5
7.56
6.64
5.7
4.71
3.6
2.32
0.82
-0.85
-2.59
-4.28
-5.8
-7.08
-8.11
-8.93
-9.62
-10.26
-10.95
-11.77
-12.8
-14.06
-15.51
-17
-18.33
-19.32
-19.89
-20.21
-20.64
-21.62
-23.55
-26.6
-30.62
-35.11
-39.27
-42.11
-42.71
-40.38
-34.94
-26.81
-16.95
-6.61
2.93
10.73
16.28
19.51
20.73
20.39
18.97
16.91
14.61
12.42
10.69
9.68
9.55
10.27
11.6
13.17
14.56
15.45
15.67
15.18
14.03
12.31
10.15
7.74
5.35
3.32
1.9
1.17
0.99
1.14
1.36
1.57
1.81
2.16
2.62
2.98
2.98
2.37
1.12
-0.6
-2.43
-3.93
-4.72
-4.54
-3.31
-1.17
1.54
4.3
6.57
7.92
8.21
7.64
6.68
5.88
5.75
6.55
8.22
10.41
12.54
13.96
14.13
12.81
10.11
6.47
2.56
-0.97
-3.65
-5.37
-6.47
-7.59
-9.55
-13.06
-18.38
-25.2
-32.64
-39.44
-44.36
-46.44
-45.28
-41.08
-34.47
-26.38
-17.71
-9.29
-1.71
4.58
9.31
12.39
13.89
14.07
13.24
11.71
9.67
7.29
4.7
2.18
0.14
-1.01
-0.98
0.2
2.21
4.55
6.73
8.48
9.74
10.63
11.27
11.78
12.18
12.47
12.68
12.86
13.07
13.36
13.75
14.21
14.75
15.4
16.25
17.43
19.05
21.12
23.4
25.48
26.76
26.71
25.06
21.91
17.74
13.16
8.71
4.68
1.07
-2.3
-5.55
-8.69
-11.57
-13.96
-15.71
-16.83
-17.46
-17.89
-18.35
-19
-19.85
-20.8
-21.7
-22.5
-23.3
-24.29
-25.78
-28.02
-31.16
-35.14
-39.68
-44.18
-47.76
-49.44
-48.31
-43.92
-36.45
-26.76
-16.11
-5.82
3.13
10.25
15.49
19.05
21.14
21.94
21.58
20.3
18.46
16.61
15.31
15.01
15.85
17.71
20.21
22.9
25.47
27.81
29.98
32.12
34.21
36.12
37.56
38.29
38.24
37.53
36.4
35.08
33.71
32.32
30.82
29.15
27.28
25.2
23.01
20.81
18.73
16.83
15.16
13.64
12.12
10.37
8.2
5.52
2.43
-0.82
-3.84
-6.35
-8.2
-9.52
-10.65
-12.02
-14.01
-16.72
-20.01
-23.52
-26.85
-29.7
-32.01
-33.91
-35.63
-37.48
-39.69
-42.4
-45.57
-48.91
-51.84
-53.52
-53.06
-49.77
-43.52
-34.9
-25.04
-15.28
-6.77
-0.12
4.54
7.42
8.78
8.76
7.4
4.86
1.48
-2.17
-5.38
-7.65
-8.77
-8.86
-8.34
-7.63
-7.01
-6.53
-6.1
-5.61
-5.15
-5.03
-5.69
-7.5
-10.5
-14.38
-18.51
-22.22
-25.04
-26.92
-28.16
-29.23
-30.53
-32.3
-34.61
-37.6
-41.48
-46.51
-52.66
-59.43
-65.87
-70.98
-74.15
-75.41
-75.28
-74.23
-72.22
-68.66
-62.78
-54.3
-43.83
-32.72
-22.5
-14.07
-7.35
-1.42
5.01
12.93
22.68
33.88
45.6
56.8
66.59
74.52
80.53
84.85
87.76
89.45
90
89.61
88.86
88.72
90.36
94.62
101.53
110.13
118.73
125.6
129.62
130.78
130.07
129.03
129.04
130.81
134.12
138.02
141.13
142.13
140.1
134.82
126.88
117.65
108.9
102.47
99.86
101.86
108.34
117.96
127.98
134.39
132.63
118.86
91.47
52.06
5.24
-42.76
-85.98
-120.33
-143.95
-156.5
-158.22
-149.66
-132.36
-109.9
-88.06
-73.49
-71.32
-83.03
-105.82
-134.06
-161.94
-185.95
-205.73
-223.25
-240.77
-259.17
-277.22
-292.19
-301.27
-302.96
-297.81
-288.05
-276.62
-265.5
-254.63
-241.74
-223.54
-197.36
-162.54
-120.66
-74.88
-28.93
13.5
48.89
73.92
85.87
83.73
69.36
47.77
25.98
10.9
7.06
15.34
33.37
56.79
80.49
99.27
107.96
101.8
77.67
35.88
-18.55
-76.22
-125.55
-156.34
-163
-146.06
-111.01
-65.39
-15.75
34.36
84.13
134.22
185.11
236.49
287.58
337.76
386.56
432.89
474.25
506.46
524.44
524
503.39
464.07
410.22
347.27
280.2
212.42
145.39
79.1
12.77
-54.65
-124.23
-196.83
-272.55
-349.67
-423.83
-488.13
-534.47
-555.74
-548.42
-513.63
-456.51
-383.85
-301.65
-213.72
-122.44
-30.51
57.58
135.69
198.14
242.51
271.4
291.75
311.91
337.74
369.68
402.34
426.81
434.38
419.98
383.92
331.61
271.73
213.68
165.24
131.03
111.94
105.6
107.48
112.21
114.97
112.63
104.25
91.01
75.58
61.07
49.69
41.75
35.33
26.64
11.28
-14.38
-51.95
-99.53
-151.27
-198.26
-231.07
-242.92
-232.53
-204.67
-168.68
-136.19
-117.15
-116.96
-135.3
-166.97
-203.71
-236.74
-258.19
-262.53
-248.63
-219.35
-180
-136.3
-93.04
-53.16
-18.92
8.16
26.74
34.22
28.08
7.79
-23.99
-61.97
-99.21
-130.07
-150.72
-153.42
-135.02
-100.37
-60.57
-25.8
-2.88
13.1
27.49
42.92
59.09
74.15
85.17
90.87
92.28
91.49
90.39
88.59
84.95
78.6
68.97
56.56
43.44
32.34
25.26
22.78
23.28
24.51
24.7
22.49
17.24
9.47
0.53
-8.14
-15.48
-21.53
-26.76
-31.69
-36.89
-42.74
-49.09
-55.42
-61.14
-65.83
-69.61
-72.7
-75.27
-77.39
-79.09
-80.25
-80.7
-80.33
-79.08
-76.99
-74.01
-69.86
-64.01
-55.85
-44.81
-30.72
-14.04
4.09
22.1
38.43
52.01
62.62
70.88
77.83
84.31
90.55
95.92
99.26
99.32
95.3
87.14
75.58
61.84
47.34
33.35
20.84
10.49
2.67
-2.56
-5.41
-6.32
-6.01
-5.21
-4.66
-4.9
-6.21
-8.53
-11.53
-14.67
-17.4
-19.34
-20.33
-20.48
-20.09
-19.47
-18.85
-18.26
-17.55
-16.46
-14.89
-12.91
-10.85
-9.18
-8.23
-8.12
-8.62
-9.36
-9.93
-10.15
-10.08
-9.93
-10
-10.51
-11.66
-13.53
-16.07
-19.05
-21.9
-23.81
-23.86
-21.25
-15.63
-7.29
2.8
13.23
22.44
29.24
32.99
33.78
32.23
29.22
25.55
21.81
18.32
15.2
12.52
10.37
8.81
7.87
7.47
7.46
7.62
7.77
7.81
7.8
7.86
8.13
8.67
9.38
10
10.21
9.78
8.66
7.01
5.11
3.26
1.58
0.07
-1.37
-2.75
-3.97
-4.78
-4.88
-4.17
-2.83
-1.31
-0.16
0.2
-0.36
-1.65
-3.3
-4.96
-6.41
-7.63
-8.67
-9.69
-10.8
-12.17
-13.94
-16.19
-18.86
-21.58
-23.8
-24.77
-23.94
-21.02
-16.14
-9.83
-2.82
4.07
10.12
14.8
17.81
19.09
18.84
17.42
15.3
12.96
10.77
9
7.73
6.98
6.7
6.79
7.16
7.68
8.25
8.77
9.15
9.36
9.38
9.21
8.85
8.35
7.75
7.17
6.75
6.62
6.85
7.4
8.15
8.87
9.36
9.38
8.79
7.53
5.66
3.31
0.73
-1.81
-4.09
-6.01
-7.64
-9.18
-10.82
-12.7
-14.74
-16.81
-18.66
-20.16
-21.23
-21.95
-22.44
-22.94
-23.71
-24.95
-26.73
-28.8
-30.58
-31.2
-29.82
-25.95
-19.67
-11.68
-3.09
4.91
11.39
15.88
18.35
19.08
18.46
16.91
14.81
12.51
10.3
8.43
7.09
6.36
6.19
6.48
7.09
7.91
8.92
10.15
11.64
13.32
15.03
16.49
17.37
17.43
16.63
15.13
13.21
11.22
9.37
7.74
6.27
4.86
3.43
1.96
0.49
-0.91
-2.19
-3.32
-4.31
-5.18
-5.95
-6.65
-7.34
-8.1
-8.97
-9.96
-11.05
-12.17
-13.31
-14.49
-15.82
-17.39
-19.29
-21.54
-24
-26.33
-27.97
-28.26
-26.56
-22.55
-16.38
-8.73
-0.6
6.97
13.17
17.6
20.17
21.01
20.35
18.44
15.64
12.37
9.1
6.28
4.18
2.9
2.38
2.46
2.99
3.84
4.9
6.06
7.22
8.3
9.18
9.79
10.07
10.01
9.63
8.95
8.04
6.94
5.74
4.52
3.4
2.47
1.77
1.29
0.97
0.77
0.63
0.58
0.62
0.7
0.74
0.6
0.17
-0.61
-1.64
-2.75
-3.73
-4.41
-4.78
-5.04
-5.46
-6.3
-7.66
-9.46
-11.48
-13.45
-15.17
-16.6
-17.77
-18.8
-19.84
-21.08
-22.7
-24.79
-27.16
-29.28
-30.33
-29.47
-26.12
-20.27
-12.5
-3.84
4.56
11.74
17.07
20.31
21.51
20.96
19.08
16.38
13.42
10.69
8.58
7.26
6.74
6.9
7.6
8.72
10.13
11.69
13.2
14.45
15.22
15.4
14.97
13.98
12.51
10.65
8.45
6.04
3.54
1.16
-0.94
-2.66
-4
-5.06
-5.94
-6.66
-7.17
-7.37
-7.22
-6.74
-6.04
-5.31
-4.69
-4.24
-3.96
-3.79
-3.69
-3.61
-3.56
-3.57
-3.7
-4.05
-4.73
-5.8
-7.22
-8.84
-10.46
-11.89
-13.04
-13.93
-14.7
-15.52
-16.64
-18.3
-20.64
-23.58
-26.66
-29.05
-29.71
-27.81
-23.04
-15.86
-7.35
1.1
8.28
13.5
16.65
18.01
18.04
17.13
15.52
13.43
11.12
8.96
7.39
6.71
7.04
8.19
9.85
11.68
13.44
15.07
16.6
18.04
19.27
20.12
20.33
19.76
18.43
16.56
14.5
12.61
11.13
10.1
9.34
8.61
7.74
6.72
5.73
5
4.68
4.75
4.98
5.09
4.8
4.05
2.89
1.48
-0.02
-1.51
-2.96
-4.33
-5.61
-6.76
-7.77
-8.72
-9.69
-10.81
-12.13
-13.64
-15.18
-16.56
-17.64
-18.42
-19.05
-19.84
-21.08
-22.84
-24.84
-26.4
-26.65
-24.82
-20.53
-14.05
-6.2
1.88
9.04
14.5
17.86
19.18
18.79
17.15
14.68
11.8
8.83
6.05
3.73
2.06
1.17
1.06
1.6
2.6
3.85
5.21
6.64
8.14
9.68
11.14
12.33
13.05
13.15
12.65
11.65
10.33
8.89
7.5
6.26
5.23
4.41
3.76
3.25
2.81
2.42
2.07
1.75
1.43
1.07
0.59
0
-0.69
-1.41
-2.08
-2.71
-3.39
-4.22
-5.33
-6.68
-8.16
-9.62
-10.95
-12.15
-13.35
-14.68
-16.18
-17.8
-19.41
-20.88
-22.13
-23.2
-24.13
-24.99
-25.83
-26.7
-27.66
-28.81
-30.2
-31.78
-33.28
-34.18
-33.78
-31.38
-26.59
-19.49
-10.79
-1.6
6.89
13.73
18.44
21.04
21.84
21.26
19.69
17.48
14.99
12.61
10.69
9.45
8.92
9
9.49
10.24
11.19
12.34
13.68
15.11
16.42
17.34
17.64
17.21
16.11
14.56
12.86
11.3
10.12
9.39
9.08
9.05
9.14
9.22
9.2
9.03
8.64
8
7.1
5.99
4.78
3.58
2.56
1.77
1.23
0.85
0.5
0.02
-0.68
-1.6
-2.63
-3.63
-4.52
-5.33
-6.26
-7.54
-9.36
-11.68
-14.24
-16.64
-18.54
-19.9
-21.1
-22.87
-26.01
-31.03
-37.75
-45.31
-52.47
-58.17
-62.11
-64.96
-67.9
-71.72
-76.05
-79.09
-78.17
-71.07
-57.08
-37.58
-15.59
5.14
20.88
28.43
25.36
10.63
-14.4
-45.04
-73.41
-90.23
-87.85
-63.39
-20.17
33.18
85.8
128.17
154.65
164.08
158.71
142.38
119.08
92.4
65.59
41.62
23.01
11.4
7
8.47
13.35
18.88
22.93
24.7
24.68
24.23
24.72
26.8
30.18
33.79
36.38
37.05
35.63
32.57
28.77
25.15
22.31
20.42
19.27
18.41
17.41
15.99
14.11
11.92
9.64
7.54
5.73
4.24
2.94
1.65
0.2
-1.54
-3.56
-5.78
-8.02
-10.16
-12.08
-13.74
-15.14
-16.22
-16.96
-17.34
-17.51
-17.7
-18.28
-19.55
-21.58
-24.16
-26.72
-28.53
-28.81
-27.06
-23.14
-17.42
-10.67
-3.88
2.04
6.46
9.12
10.16
9.89
8.68
6.86
4.71
2.54
0.67
-0.61
-1.09
-0.75
0.27
1.72
3.36
4.96
6.4
7.57
8.42
8.91
9.06
8.92
8.55
8.02
7.36
6.58
5.67
4.66
3.59
2.52
1.51
0.63
-0.11
-0.72
-1.26
-1.87
-2.68
-3.78
-5.19
-6.84
-8.55
-10.16
-11.51
-12.54
-13.23
-13.65
-13.86
-13.93
-13.89
-13.68
-13.26
-12.61
-11.87
-11.31
-11.28
-12.01
-13.5
-15.43
-17.34
-18.8
-19.77
-20.61
-21.96
-24.31
-27.64
-31.23
-33.83
-34.1
-31.16
-24.96
-16.31
-6.49
3.13
11.44
17.52
20.76
21.14
19.64
18.42
20.28
27.4
40.04
55.9
70.92
80.97
83.65
79.22
70.16
59.76
50.7
44.31
40.81
39.91
41.4
45.11
50.66
57.22
63.57
68.41
70.84
70.62
68.2
64.6
60.98
58.18
56.3
54.56
51.67
46.4
38.39
28.41
18.2
9.75
4.52
3.06
5.02
9.64
15.91
22.36
26.67
25.81
16.76
-1.9
-28.8
-59.63
-88.48
-110.18
-122.2
-125.29
-122.5
-117.31
-112.07
-107.46
-103.07
-98.35
-93.21
-87.9
-82.58
-77
-70.55
-62.74
-53.46
-43.22
-32.87
-23.34
-15.34
-9.17
-4.69
-1.37
1.54
4.68
8.21
11.66
14.01
14.13
11.32
5.64
-2
-10.2
-17.6
-23.32
-27.09
-29.19
-30.14
-30.44
-30.4
-30.17
-29.82
-29.49
-29.38
-29.78
-30.96
-33.08
-36.15
-39.97
-44.2
-48.31
-51.73
-53.86
-54.16
-52.32
-48.3
-42.39
-35.23
-27.6
-20.3
-13.98
-9.03
-5.65
-3.8
-3.25
-3.57
-4.18
-4.39
-3.58
-1.3
2.61
8.09
14.93
22.85
31.5
40.42
48.97
56.3
61.44
63.59
62.25
57.49
49.9
40.44
30.25
20.36
11.47
3.94
-2.17
-6.98
-10.65
-13.37
-15.33
-16.67
-17.44
-17.52
-16.66
-14.6
-11.22
-6.68
-1.49
3.62
7.96
11.02
12.61
12.87
12.14
10.83
9.31
7.84
6.57
5.47
4.43
3.31
2
0.47
-1.18
-2.84
-4.39
-5.81
-7.24
-8.93
-11.16
-14.1
-17.71
-21.78
-26
-30.17
-34.33
-38.84
-44.29
-51.23
-59.89
-69.95
-80.53
-90.32
-98.05
-102.9
-104.71
-104.04
-101.87
-99.28
-97.04
-95.42
-94.03
-91.87
-87.5
-79.39
-66.4
-48.31
-25.97
-1.24
23.59
46.58
66.64
83.68
98.13
110.3
119.96
126.33
128.64
126.73
121.41
114.29
107.15
101.21
96.8
93.38
90.15
86.54
82.5
78.45
74.82
71.75
69.04
66.27
63.12
59.58
55.97
52.76
50.41
49.1
48.77
49.1
49.68
50.11
50.15
49.71
48.86
47.7
46.32
44.67
42.52
39.62
35.73
30.8
25.03
18.79
12.57
6.75
1.49
-3.37
-8.19
-13.4
-19.26
-25.74
-32.48
-38.92
-44.55
-49.04
-52.37
-54.79
-56.75
-58.81
-61.49
-65.12
-69.61
-74.35
-78.15
-79.53
-77.19
-70.44
-59.59
-45.88
-31.16
-17.31
-5.78
2.65
7.9
10.39
10.8
9.9
8.46
7.17
6.53
6.82
8.06
10.09
12.61
15.34
18.07
20.7
23.23
25.66
27.99
30.13
31.97
33.31
34.01
33.95
33.14
31.72
29.95
28.09
26.34
24.81
23.49
22.32
21.23
20.17
19.16
18.23
17.42
16.8
16.4
16.24
16.27
16.4
16.48
16.37
15.99
15.33
14.39
13.15
11.59
9.65
7.39
4.97
2.63
0.62
-0.86
-1.76
-2.2
-2.39
-2.58
-3.04
-3.9
-5.13
-6.58
-7.95
-9.01
-9.67
-10.03
-10.37
-11.02
-12.2
-13.9
-15.89
-17.79
-19.24
-20.02
-20.18
-20.06
-20.24
-21.37
-23.87
-27.63
-31.85
-35.08
-35.55
-31.65
-22.47
-8.15
10.06
30.06
49.4
65.96
78.34
86.07
89.49
89.36
86.43
81.27
74.22
65.65
56.13
46.48
37.58
30.14
24.49
20.56
18.04
16.56
15.83
15.64
15.74
15.9
15.8
15.24
14.07
12.26
9.89
7.03
3.81
0.39
-3.08
-6.46
-9.63
-12.53
-15.1
-17.26
-18.85
-19.69
-19.65
-18.75
-17.22
-15.49
-14.09
-13.51
-14.03
-15.59
-17.85
-20.27
-22.28
-23.47
-23.69
-23.1
-22.06
-21
-20.28
-20.1
-20.46
-21.2
-22.08
-22.92
-23.58
-24.08
-24.51
-25.07
-25.96
-27.37
-29.39
-31.99
-34.85
-37.42
-38.92
-38.67
-36.23
-31.7
-25.72
-19.28
-13.45
-9.06
-6.48
-5.59
-5.87
-6.62
-7.15
-6.96
-5.75
-3.45
-0.16
3.91
8.54
13.49
18.59
23.67
28.56
33.14
37.33
41.09
44.51
47.69
50.76
53.72
56.42
58.51
59.53
59.13
57.2
54.01
50.15
46.3
42.92
40.15
37.73
35.27
32.46
29.2
25.58
21.77
17.86
13.9
10.06
6.8
4.83
4.89
7.32
11.68
16.72
20.65
21.61
18.04
8.82
-6.83
-29.49
-59.31
-95.35
-135
-173.78
-206.13
-226.74
-232.05
-221.04
-195.11
-157.41
-112.15
-64.1
-18.33
20.28
47.85
62.56
65.12
58.61
47.18
34.69
23.64
14.97
8.51
3.59
-0.58
-4.8
-9.64
-15.05
-19.81
-21.44
-16.77
-3.11
20.4
52.17
88.41
124.21
154.82
176.72
187.86
187.42
175.23
151.47
116.76
72.65
22.1
-30.34
-79
-118.15
-143.3
-152.28
-145.77
-126.88
-100.26
-70.77
-42.51
-18.37
-0.07
11.56
16.38
15
8.9
0.32
-8.1
-14.03
-16.17
-14.57
-10.47
-5.67
-1.83
0.12
0.12
-1.27
-3.2
-4.99
-6.38
-7.55
-8.97
-11.15
-14.24
-17.88
-21.22
-23.19
-23
-20.48
-16.16
-11.11
-6.43
-2.85
-0.49
1.02
2.26
3.69
5.46
7.44
9.45
11.39
13.34
15.42
17.66
19.87
21.65
22.62
22.57
21.58
19.95
18.04
16.12
14.25
12.44
10.7
9.14
7.89
6.91
5.88
4.18
1.11
-3.84
-10.69
-18.84
-27.22
-34.59
-39.87
-42.42
-42.18
-39.57
-35.32
-30.24
-25.1
-20.5
-16.83
-14.33
-13.04
-12.83
-13.47
-14.69
-16.24
-17.96
-19.82
-21.72
-23.47
-24.63
-24.56
-22.65
-18.51
-12.19
-4.18
4.64
13.29
20.94
27
31.19
33.47
34
33.01
30.89
28.05
24.88
21.75
18.9
16.47
14.59
13.34
12.74
12.71
13.07
13.54
13.86
13.89
13.62
13.18
12.69
12.13
11.38
10.25
8.64
6.61
4.4
2.29
0.48
-0.99
-2.25
-3.5
-4.86
-6.43
-8.17
-10.09
-12.13
-14.28
-16.46
-18.57
-20.51
-22.3
-24.07
-26.03
-28.36
-31.11
-34.11
-37.1
-39.85
-42.32
-44.7
-47.5
-51.35
-56.83
-64.15
-72.78
-81.38
-87.88
-90.13
-86.62
-77.09
-62.68
-45.52
-27.87
-11.45
3.04
15.73
27.16
37.93
48.37
58.5
67.98
76.03
81.47
83.03
79.95
72.52
62.26
51.39
41.94
34.85
29.72
25.42
21.02
16.6
13.34
12.91
16.74
25.52
39.05
56.41
75.99
95.55
112.56
124.89
131.74
134.22
135.08
137.54
143.78
154.14
167.06
179.9
189.88
194.54
191.63
178.91
154.41
117.42
69.77
16.35
-35.45
-77.41
-102.78
-108.01
-93.6
-63.63
-24.29
18.11
58.81
95.46
127.85
156.43
180.93
199.43
208.65
205.29
187.6
156.27
114.34
66.01
15.19
-35.52
-84.85
-132.47
-178.45
-222.95
-266.51
-310.63
-358.04
-412.03
-474.62
-544.59
-616.19
-679.85
-724.99
-743.87
-734.58
-701.63
-653.88
-600.67
-548.58
-500.09
-454.53
-410.3
-366.79
-324.81
-285.82
-250.55
-218.33
-187.43
-156.01
-123.23
-89.51
-56.47
-25.92
1.03
24.5
45.8
66.82
89.2
113.74
140.22
167.68
195.04
221.4
246.19
269.03
289.53
307.27
321.84
332.89
340.06
342.75
339.99
330.48
313.12
287.62
255.14
218.46
181.48
148.35
122.46
105.74
98.39
99.14
105.79
115.75
126.48
135.77
141.92
143.87
141.36
135.01
126.15
116.5
107.74
101.02
96.71
94.33
92.88
91.22
88.57
84.81
80.49
76.5
73.62
72.12
71.66
71.63
71.53
71.37
71.57
72.77
75.32
79.13
83.69
88.22
91.78
93.3
91.56
85.48
74.56
59.41
41.87
24.66
10.44
0.89
-3.75
-4.46
-2.74
0.17
3.6
7.36
11.31
15.12
18.3
20.43
21.53
22.13
23.13
25.46
29.82
36.48
45.18
55.08
64.8
72.56
76.58
75.61
69.41
58.92
46.04
33.08
22.04
14.11
9.48
7.5
7.07
7.02
6.34
4.32
0.51
-5.23
-12.82
-22.01
-32.5
-44.05
-56.39
-69.18
-81.92
-93.94
-104.53
-113.09
-119.32
-123.17
-124.85
-124.61
-122.71
-119.36
-114.79
-109.21
-102.86
-95.94
-88.5
-80.37
-71.24
-60.67
-48.35
-34.28
-18.96
-3.45
10.84
22.63
31.24
37.07
41.61
47.07
55.57
68.32
85.15
104.52
124.15
141.89
156.36
167.27
175.17
181
185.69
189.77
193.18
195.03
193.58
186.4
171.15
146.55
113.32
74.22
33.29
-5.66
-40.3
-70.22
-96.23
-119.09
-138.58
-153.38
-161.92
-163.51
-159.02
-150.58
-140.64
-130.98
-122.21
-114.02
-105.91
-97.67
-89.61
-82.11
-75.25
-68.65
-61.66
-53.77
-44.93
-35.66
-26.6
-18.21
-10.55
-3.25
4.13
11.85
19.79
27.51
34.43
40.12
44.48
47.82
50.84
54.48
59.62
66.89
76.37
87.51
99.06
109.29
116.35
118.8
116.06
108.62
97.92
85.81
74.02
63.62
54.88
47.55
41.19
35.53
30.61
26.61
23.65
21.49
19.56
17.08
13.34
7.95
0.89
-7.52
-16.81
-26.59
-36.57
-46.56
-56.25
-65.12
-72.43
-77.5
-79.99
-80.08
-78.46
-76.01
-73.48
-71.27
-69.4
-67.7
-66.04
-64.4
-62.92
-61.78
-61.1
-60.84
-60.83
-60.75
-60.17
-58.69
-56.03
-52.12
-47.13
-41.41
-35.38
-29.4
-23.8
-18.84
-14.76
-11.71
-9.71
-8.58
-8.02
-7.73
-7.55
-7.48
-7.6
-7.95
-8.32
-8.38
-7.82
-6.51
-4.64
-2.62
-0.89
0.29
0.95
1.35
1.88
2.81
4.23
6.01
7.86
9.47
10.67
11.41
11.76
11.87
11.82
11.66
11.34
10.78
9.91
8.73
7.34
5.9
4.57
3.39
2.32
1.18
-0.19
-1.88
-3.81
-5.77
-7.49
-8.81
-9.74
-10.5
-11.44
-12.91
-15.21
-18.4
-22.26
-26.23
-29.52
-31.29
-30.94
-28.35
-23.87
-18.24
-12.3
-6.76
-2.12
1.4
3.67
4.69
4.55
3.47
1.79
-0.03
-1.56
-2.47
-2.56
-1.76
-0.13
2.16
4.81
7.37
9.36
10.43
10.48
9.7
8.47
7.19
6.14
5.42
5
4.75
4.59
4.44
4.26
4.01
3.68
3.29
2.93
2.72
2.76
3.14
3.82
4.7
5.6
6.36
6.89
7.25
7.61
8.16
9.05
10.2
11.41
12.4
13.05
13.43
13.83
14.59
15.93
17.83
20.05
22.22
24.02
25.28
26.12
26.89
28.01
29.83
32.37
35.32
38.12
40.26
41.39
41.42
40.31
37.9
33.81
27.49
18.46
6.52
-8.05
-24.6
-42.12
-59.44
-75.33
-88.6
-98.22
-103.47
-104.16
-100.7
-94.15
-85.92
-77.42
-69.44
-61.99
-54.35
-45.63
-35.61
-25.21
-16.51
-11.93
-13.21
-20.55
-32.51
-46.66
-60.54
-72.42
-81.53
-87.72
-91.06
-91.7
-90.07
-87.28
-85.22
-86.27
-92.56
-104.99
-122.76
-143.2
-162.39
-175.91
-179.79
-171.37
-149.84
-116.66
-75.39
-31.1
10.74
45.63
71.2
87.59
97.04
102.5
106.24
108.86
109.45
106.53
99.52
89.46
78.82
70.32
65.63
64.56
65.44
66.35
66.42
66.33
67.73
71.94
78.76
86.17
91.19
91.31
85.72
75.55
63.29
51.65
42.75
37.84
37.42
41.18
47.63
53.85
55.83
50.02
35.4
15.07
-4.07
-13.64
-7.17
17.01
55.32
100.65
145.51
184.7
216.13
239.75
255.56
262.56
258.81
242.93
215.44
179.2
138.36
96.73
56.45
17.85
-19.45
-55.2
-87.87
-115.29
-136.1
-151.09
-163.38
-177.23
-195.78
-219.01
-243.16
-262.06
-269.87
-263.81
-245.5
-220.2
-194.43
-173.1
-157.83
-147.03
-137.81
-128.26
-118.92
-112.3
-111.01
-115.56
-123.54
-130.4
-131.88
-126.32
-115.55
-103.9
-96.09
-95.06
-100.75
-110.43
-120.06
-126.14
-127.01
-123.3
-117.66
-113.86
-115.55
-124.67
-140.43
-158.62
-173.12
-178.08
-170.21
-149.96
-120.94
-88.05
-55.26
-24.22
6.4
38.83
74.57
113.56
154.46
195.34
234.15
268.7
296.63
317.16
329.69
333.91
329.9
318.53
301.5
280.9
258.59
235.86
216.04
201.72
194.25
193.91
200.83
215.44
238.15
268.3
303.42
342.72
383.72
422.15
452.7
470.84
474.34
463.9
442.63
394.6
314.43
208.63
94.35
-9.79
-92.5
-151.72
-190.74
-214.78
-229.12
-234.99
-233.47
-226.39
-216.49
-206.24
-197.52
-191.45
-188.38
-189.05
-192.04
-196.17
-200.91
-206.22
-211.55
-216.63
-221.2
-226.13
-233.42
-243.78
-257.59
-274.83
-295.67
-314.03
-325.23
-324.8
-309.34
-277.28
-229.21
-169.94
-108.65
-57.64
-27.72
-24.44
-44.8
-78.83
-113.58
-138.19
-147.94
-142.26
-127.01
-111.27
-102.34
-101.04
-103.97
-107.75
-110.56
-114.1
-119.72
-126.89
-132.53
-132.55
-123.16
-105.59
-82.79
-58.82
-37.09
-18.92
-3.65
11.01
27.78
48.37
72.44
98.21
123.14
145.11
163.56
179.16
193.7
209.39
228.09
250.46
275.91
302.25
326.06
343.61
351.74
348.95
335.96
315.37
290.43
264.12
238.21
213.26
189.26
166.19
144.49
124.84
107.68
92.75
79.21
65.97
52.37
38.61
25.74
15.14
7.83
3.88
2.32
1.58
0.06
-3.17
-8.17
-14.19
-20.16
-25.02
-28.07
-29.06
-28.1
-25.65
-22.39
-19.12
-16.49
-14.89
-14.27
-14.17
-14.01
-13.3
-11.91
-10.01
-7.96
-6
-4.1
-2
0.6
3.73
7.04
9.91
11.73
12.29
11.98
11.67
12.3
14.41
17.8
21.48
24.04
24.18
21.29
15.66
8.41
1.04
-5.15
-9.46
-11.95
-13.26
-14.24
-15.58
-17.67
-20.59
-24.31
-28.78
-33.79
-38.81
-42.92
-45.17
-45.09
-43.24
-41.05
-40.2
-41.62
-44.9
-48.52
-51
-52.16
-53.64
-58.1
-67.51
-81.47
-96.79
-108.61
-112.46
-106.07
-89.96
-66.68
-39.28
-10.12
19.52
48.92
77.14
102.51
122.81
136.03
141.1
138.37
129.53
117.13
103.81
91.6
81.48
73.25
65.92
58.33
49.73
40.08
29.95
20.08
11
2.83
-4.62
-11.55
-17.88
-23.29
-27.32
-29.73
-30.66
-30.66
-30.52
-31.03
-32.63
-35.29
-38.58
-41.83
-44.5
-46.42
-47.9
-49.57
-52.01
-55.44
-59.54
-63.64
-66.98
-69.08
-69.86
-69.54
-68.49
-67.12
-65.79
-64.86
-64.67
-65.47
-67.37
-70.26
-73.78
-77.44
-80.64
-82.8
-83.46
-82.37
-79.56
-75.32
-70.06
-64.19
-57.97
-51.5
-44.76
-37.69
-30.15
-21.87
-12.41
-1.26
11.98
27.38
44.47
62.25
79.27
94.05
105.25
112.1
114.4
112.55
107.43
100.11
91.68
83.03
74.8
67.32
60.73
55.04
50.27
46.54
44.01
42.83
43.04
44.46
46.68
49.2
51.59
53.69
55.73
58.23
61.85
67.11
74.16
82.75
92.36
102.41
112.5
122.58
133
144.52
158.13
174.68
194.35
216.11
237.48
254.88
264.58
263.78
251.57
229.03
198.73
163.78
126.87
89.97
54.24
20.28
-11.75
-42.29
-72.61
-104.85
-141.41
-183.85
-231.59
-281.3
-327.41
-363.83
-386.26
-394.06
-390.61
-382.05
-374.91
-373.62
-379.26
-389.57
-400.27
-406.76
-405.39
-394.26
-373.27
-344.05
-309.54
-273.35
-238.91
-208.71
-184.06
-165.1
-151.45
-142.59
-137.94
-136.55
-136.74
-135.96
-131.38
-120.75
-103.23
-79.66
-52.09
-22.86
6.27
34.52
61.8
87.96
112.22
132.85
147.44
153.47
148.81
131.99
102.26
59.86
6.67
-53.14
-113.03
-165.04
-201.72
-218.38
-214.36
-192.67
-158.29
-116.09
-69.72
-21.84
24.74
66.43
99.39
121.27
132.76
137.94
142.83
152.86
170.64
195.24
223.08
249.83
272.22
288.77
299.38
304.37
303.66
296.68
282.88
262.3
235.9
205.46
173.09
140.63
109.41
80.34
54.09
31.41
13.11
-0.14
-8.15
-11.38
-10.96
-8.32
-4.87
-1.6
1.02
2.91
4.17
4.77
4.44
2.88
-0.01
-3.88
-7.95
-11.28
-13.22
-13.7
-13.24
-12.71
-12.82
-13.83
-15.45
-17.01
-17.79
-17.31
-15.53
-12.81
-9.84
-7.31
-5.8
-5.55
-6.43
-8.05
-9.86
-11.31
-12
-11.69
-10.31
-7.95
-4.82
-1.22
2.53
6.15
9.56
12.87
16.44
20.8
26.36
33.3
41.39
50.01
58.43
66.1
72.79
78.6
83.72
88.23
92
94.74
96.26
96.61
96.11
95.16
94.16
93.29
92.62
92.2
92.16
92.63
93.73
95.35
97.23
98.89
99.88
99.9
98.93
97.24
95.33
93.76
92.91
92.77
92.97
92.93
92.12
90.37
87.91
85.25
82.98
81.4
80.38
79.13
76.3
70.25
59.72
44.54
26.06
6.92
-10.03
-22.93
-31.84
-38.58
-45.7
-54.96
-66.4
-78.41
-88.71
-95.64
-98.9
-99.37
-98.26
-96.28
-93.29
-88.63
-81.83
-73.24
-64.14
-56.49
-52.18
-52.49
-57.62
-66.7
-78.04
-89.65
-99.69
-106.88
-110.64
-110.97
-108.19
-102.8
-95.51
-87.39
-80.03
-75.3
-74.81
-79.18
-87.66
-98.3
-108.74
-117.17
-122.81
-126.01
-127.55
-128.14
-128.15
-127.88
-127.97
-129.45
-133.43
-140.37
-149.52
-158.73
-164.76
-163.87
-152.59
-128.68
-92
-45.36
5.3
51.82
85.92
101.85
98.53
79.91
53.3
26.43
4.66
-10.35
-19.91
-26.41
-31.48
-35.13
-36.4
-34.62
-30.35
-25.37
-21.73
-20.63
-21.84
-23.85
-24.74
-23.2
-19.09
-13.52
-8.2
-4.53
-2.82
-2.14
-0.69
3.2
10.2
19.49
29.08
36.69
40.63
40.41
36.56
30.15
22.18
13.31
4.15
-4.48
-11.42
-15.54
-16.32
-14.44
-11.74
-10.58
-12.86
-18.97
-27.5
-35.71
-40.76
-40.91
-36.14
-27.89
-18.16
-8.45
0.67
9.35
17.71
25.39
31.46
35.03
35.88
34.74
33
32.03
32.55
34.37
36.65
38.45
39.19
38.91
38.23
37.99
38.95
41.39
45.01
48.94
52.04
53.28
52.17
48.91
44.29
39.37
35.02
31.71
29.42
27.87
26.69
25.54
24.14
22.28
19.86
17.11
14.79
14.28
17.31
25.43
39.36
58.61
81.4
105.12
126.89
144.27
155.64
160.31
158.45
150.86
138.75
123.64
107.21
91.1
76.71
64.97
56.17
49.94
45.4
41.24
35.83
27.26
13.67
-6.29
-32.92
-64.97
-99.75
-133.69
-163.14
-185.03
-196.98
-197.04
-183.35
-154.33
-109.59
-51.17
15.68
83.01
142.03
185.65
210.48
217.45
210.8
196.23
179
162.92
150.06
141.06
135.42
131.81
128.33
123.17
115.26
104.82
93.24
82.47
73.91
67.78
63.04
57.82
50.16
38.56
22.19
1.02
-24.08
-51.32
-78.01
-101.04
-117.55
-125.78
-125.68
-119.03
-109.01
-99.29
-92.9
-91.26
-93.85
-98.73
-103.79
-108.22
-113.25
-121.76
-136.64
-158.74
-185.65
-212.06
-231.71
-239.91
-235.04
-218.56
-193.36
-162.16
-126.63
-88.03
-48.35
-11.02
19.62
39.87
48.41
46.86
38.93
28.64
18.55
9.13
-0.55
-11.6
-24.22
-37.45
-49.74
-59.73
-66.8
-71.1
-73.13
-73.31
-71.69
-68.04
-62.13
-53.87
-43.42
-31.03
-17.01
-1.72
14.34
30.47
45.95
60.14
72.7
83.62
93.22
102.01
110.55
119.31
128.53
138.21
148.15
158.1
167.9
177.61
187.42
197.58
208.16
219.05
229.89
240.2
249.5
257.39
263.56
267.95
270.89
273.21
276.04
280.39
286.2
291.81
294.07
289.27
274.69
249.89
217.02
179.98
142.77
107.86
75.47
44
11.26
-24.19
-62.35
-101.89
-141.17
-178.97
-215.22
-250.9
-287.44
-326.37
-369.01
-416.66
-470.45
-530.47
-594.38
-656.5
-708.39
-741.28
-749.51
-732.95
-697.13
-650.65
-601.44
-553.88
-508.27
-462.74
-415.79
-367.99
-321.63
-278.97
-240.6
-204.9
-169.06
-130.8
-89.55
-46.62
-4.45
34.81
70.23
102.51
133.6
165.82
201.08
240.44
283.99
330.81
379.08
426.1
468.49
502.76
526.14
537.44
537.42
528.52
514.03
497.05
479.65
462.68
445.91
428.52
409.57
388.23
363.85
335.98
304.3
268.66
229.09
185.86
139.84
92.71
47.1
6.45
-25.61
-46.12
-53.74
-49.25
-35.6
-17.14
1.45
16.37
25.66
29.42
29.48
28.52
29
32.09
37.14
41.61
41.61
32.68
10.95
-25.62
-75.99
-135.1
-193.96
-241.12
-265.77
-261.19
-227.36
-171.07
-103.78
-37.98
16.11
52.1
67.44
62.45
39.63
3.58
-39.02
-80.06
-111.42
-126.95
-123.91
-103.2
-68.69
-25.87
19.36
61.65
96.83
122.38
137.79
144.22
143.68
137.98
127.97
113.54
94.32
70.57
43.55
15.35
-11.92
-36.82
-59
-78.92
-97.28
-114.39
-130.01
-143.52
-154.46
-163.01
-169.95
-176.4
-183.08
-189.83
-195.48
-198.22
-196.37
-188.99
-176.29
-159.35
-139.77
-119.15
-98.84
-79.81
-62.75
-48
-35.44
-24.46
-14.03
-2.99
9.53
23.77
39.15
54.34
67.61
77.32
82.37
82.62
78.97
73.11
66.91
61.59
57.02
51.55
42.64
27.69
5.04
-25.39
-61.87
-100.95
-137.87
-167.24
-184.17
-185.6
-171.4
-144.64
-110.62
-75
-41.81
-12.39
14.18
39.58
64.49
87.84
107.33
120.8
127.65
129.26
128.25
127.22
127.59
129.26
130.99
131.29
128.86
122.64
111.45
93.82
68.54
35.52
-3.32
-43.93
-81
-109.47
-126.06
-130.14
-123.64
-110.12
-93.71
-78.16
-66.23
-59.44
-58.03
-61.1
-66.99
-73.77
-79.72
-83.5
-84.23
-81.29
-74.32
-63.38
-49.23
-33.36
-17.68
-3.93
6.92
14.98
21.18
26.69
32.28
37.96
43.13
46.94
48.78
48.48
46.31
42.77
38.36
33.5
28.47
23.53
18.97
15.12
12.32
10.76
10.43
11
11.86
12.35
12
10.62
8.5
6.17
4.24
3.1
2.73
2.7
2.32
1.02
-1.4
-4.56
-7.61
-9.51
-9.33
-6.62
-1.39
5.85
14.36
23.3
31.91
39.58
45.88
50.56
53.56
54.95
54.96
53.93
52.31
50.62
49.29
48.63
48.75
49.63
51.09
52.86
54.46
55.24
54.41
51.31
45.7
37.88
28.74
19.4
10.86
3.75
-1.79
-5.89
-8.76
-10.58
-11.47
-11.58
-11.22
-10.73
-10.5
-10.77
-11.59
-12.89
-14.47
-16.1
-17.63
-18.92
-19.92
-20.65
-21.24
-21.83
-22.49
-23.23
-23.9
-24.34
-24.48
-24.33
-24.05
-23.83
-23.75
-23.81
-23.84
-23.64
-23.02
-21.92
-20.41
-18.74
-17.1
-15.56
-13.9
-11.72
-8.66
-4.7
-0.27
3.76
6.44
7.15
5.89
3.22
0.04
-2.85
-4.98
-6.34
-7.18
-7.83
-8.5
-9.17
-9.71
-9.92
-9.71
-9.13
-8.27
-7.26
-6.21
-5.12
-4.01
-2.9
-1.84
-0.91
-0.17
0.36
0.69
0.85
0.88
0.79
0.6
0.41
0.41
0.83
1.9
3.76
6.45
9.9
13.96
18.39
22.83
26.89
30.19
32.5
33.75
34.05
33.51
32.17
29.93
26.73
22.67
18.17
13.9
10.53
8.46
7.65
7.72
8.2
8.79
9.37
9.88
10.16
9.93
8.97
7.33
5.44
3.93
3.31
3.62
4.44
5.16
5.4
5.27
5.23
5.77
7.01
8.59
9.99
10.89
11.52
12.61
15.17
19.97
27.27
36.67
47.22
57.54
66.12
71.56
73.01
70.62
65.68
60.46
57.53
58.78
64.7
74.05
84.31
92.66
97.04
96.79
92.67
86.36
79.65
73.72
68.68
63.37
55.5
42.2
21.02
-8.88
-45.75
-85.1
-120.67
-146.36
-158.29
-156.08
-142.79
-123.51
-103.46
-86.44
-74.44
-68
-67.26
-72.42
-83.62
-100.35
-120.88
-142.31
-161.33
-175.4
-183.67
-187.18
-188.29
-189.52
-192.57
-197.88
-204.78
-212.17
-219.26
-225.78
-231.59
-236.38
-239.05
-237.87
-231.02
-217.44
-197.31
-172.11
-144.1
-115.8
-89.62
-67.72
-51.94
-43.57
-42.81
-48.51
-57.95
-67.52
-73.62
-73.81
-67.24
-54.56
-37.16
-16.45
6.68
32.15
60.44
91.89
125.83
160.15
191.28
215.26
229.12
231.76
224.47
210.18
192.11
172.75
153.52
135.17
118.61
105.08
95.14
88.65
84.39
80.31
74.34
65.38
53.86
41.57
30.94
22.55
16
10.04
3.19
-5.57
-16.35
-28.16
-39.08
-46.89
-51.77
-54.54
-56.65
-60.34
-68.59
-84.59
-110.65
-146.74
-189.63
-235.75
-279.38
-314.03
-334.67
-339.22
-329.39
-309.86
-286.72
-249.42
-193.77
-121.47
-40.37
38.65
106.62
158.58
193.48
213.57
223.89
228.55
230.69
234.16
240.3
247.68
253.08
253.31
247.05
235.5
219.54
200.74
180.74
160.56
141.51
124.75
111.11
100.9
93.68
87.12
79.11
69.06
57.81
47.38
39.59
35.01
32.68
30.7
26.66
19.4
9.66
-0.55
-8.92
-13.92
-15.29
-13.66
-9.98
-5.12
0.41
6.38
12.44
18.06
22.69
26.09
28.5
30.47
32.38
34.06
34.66
32.96
28.03
19.69
8.71
-3.48
-15.46
-26.36
-36.23
-45.67
-55.35
-65.27
-74.55
-81.64
-84.96
-83.62
-77.79
-68.62
-57.64
-46.1
-34.63
-23.2
-11.57
0.3
11.97
22.62
31.35
37.55
41.13
42.53
42.46
41.69
40.8
40.21
40.24
41.21
43.36
46.82
51.44
56.79
62.27
67.3
71.51
74.82
77.27
78.93
79.72
79.44
77.89
74.97
70.77
65.5
59.4
52.72
45.69
38.56
31.53
24.85
18.69
13.23
8.57
4.7
1.4
-1.82
-5.56
-10.29
-15.96
-21.88
-26.85
-29.79
-30.32
-29.05
-27.35
-26.64
-27.8
-30.71
-34.59
-38.48
-41.74
-44.09
-45.39
-45.46
-44.07
-41.22
-37.39
-33.58
-30.9
-30.11
-31.2
-33.57
-36.57
-39.95
-44.21
-50.23
-58.58
-68.9
-79.73
-88.96
-94.52
-95.16
-90.72
-82.06
-70.8
-58.85
-48.28
-41.19
-39.5
-44.56
-56.61
-74.43
-95.47
-116.36
-133.5
-143.76
-144.83
-135.6
-116.35
-88.87
-56.13
-21.65
11.47
41.32
67.45
90.49
111.19
129.73
145.33
156.57
161.98
160.7
152.94
140.14
124.73
109.73
97.77
90.44
88.04
89.79
94.51
101.22
109.28
118.03
126.27
132.09
133.34
128.48
117.49
102.07
85.05
69.18
56.12
45.89
37.16
28.07
17.09
3.65
-11.82
-28.19
-44.11
-58.36
-69.95
-78.02
-81.8
-80.86
-75.26
-65.73
-53.55
-40.29
-27.29
-15.47
-5.42
2.34
7.01
7.49
2.7
-7.86
-23.59
-42.57
-61.76
-77.7
-87.4
-89.16
-82.93
-70.23
-53.42
-34.9
-16.41
1.25
18.03
34.11
49.3
62.47
71.51
73.54
65.94
47.62
20.24
-11.45
-40.59
-60.36
-66.53
-59.06
-41.93
-21.28
-2.86
9.94
16.49
18.05
16.33
12.51
7.27
1.3
-4.12
-7.32
-6.83
-2.1
6.11
15.99
25.24
31.89
34.82
34.2
31.29
27.96
25.9
25.75
26.66
26.42
22.19
11.64
-6.15
-30.16
-57.6
-84.59
-107.07
-121.71
-126.64
-121.85
-109.09
-91.35
-71.99
-53.77
-38.35
-26.12
-16.54
-8.62
-1.4
5.75
13.11
20.61
27.92
34.54
39.89
43.48
45.1
44.9
43.42
41.29
38.99
36.65
34.02
30.62
25.99
19.94
12.68
4.88
-2.48
-8.38
-12.05
-13.25
-12.48
-10.82
-9.65
-9.99
-11.97
-14.52
-15.74
-13.72
-7.38
2.96
15.64
28.33
38.85
45.79
48.7
47.85
43.95
37.9
30.65
23.18
16.37
10.69
6.11
2.15
-1.79
-6.01
-10.41
-14.57
-18.09
-20.85
-22.96
-24.63
-25.87
-26.48
-26.19
-24.97
-23.27
-21.87
-21.5
-22.42
-24.19
-25.88
-26.58
-26
-24.63
-23.59
-24.03
-26.61
-31.19
-36.96
-42.97
-48.71
-54.35
-60.66
-68.49
-78.19
-89.37
-100.99
-111.9
-121.3
-129.14
-135.95
-142.68
-150.2
-159.01
-169.12
-179.97
-190.57
-199.66
-205.98
-208.68
-207.67
-203.82
-198.62
-193.69
-189.97
-187.27
-184.25
-178.9
-169.27
-154.08
-133.07
-106.91
-76.78
-44.01
-9.56
26.12
63.21
102.28
143.7
187.05
230.53
271.01
304.68
328.22
339.92
340.32
331.95
318.39
302.97
287.91
274.03
261.15
248.7
236.28
223.81
211.42
199.1
186.63
173.58
159.63
144.76
129.44
114.48
100.7
88.62
78.21
68.99
60.27
51.55
42.75
34.13
26.11
18.91
12.42
6.22
-0.21
-7.25
-14.95
-23.07
-31.14
-38.61
-44.96
-49.72
-52.51
-53.06
-51.18
-46.88
-40.36
-32.02
-22.46
-12.53
-3.26
4.19
8.76
9.8
7.26
1.75
-5.63
-13.66
-21.29
-27.82
-32.9
-36.55
-39.02
-40.7
-42.06
-43.53
-45.4
-47.73
-50.34
-52.94
-55.19
-56.79
-57.57
-57.6
-57.33
-57.56
-59.2
-62.89
-68.47
-74.8
-79.96
-81.86
-79
-71.02
-59.01
-45.33
-33.1
-25.61
-25.63
-34.91
-53.81
-81.07
-113.78
-147.7
-177.99
-200.25
-211.48
-210.77
-199.19
-179.21
-153.59
-124.6
-93.69
-61.64
-29.01
3.48
35
64.72
92.11
116.84
138.61
156.95
171.2
180.6
184.47
182.45
174.82
162.7
148.14
133.78
122.12
114.72
111.66
111.9
114.02
117.27
121.9
128.66
137.71
147.88
156.79
161.86
161.66
156.6
148.45
139.16
129.73
119.88
108.7
95.59
80.92
65.88
51.75
39.18
27.95
17.3
6.53
-4.52
-15.38
-25.24
-33.3
-39
-42.07
-42.45
-40.34
-36.12
-30.51
-24.47
-19.01
-14.89
-12.4
-11.22
-10.75
-10.46
-10.34
-10.99
-13.23
-17.56
-23.72
-30.62
-36.81
-41.09
-42.88
-42.31
-39.98
-36.65
-33.16
-30.54
-30.01
-32.86
-39.9
-50.88
-64.23
-77.27
-87.05
-91.25
-88.92
-80.7
-68.44
-54.49
-40.99
-29.35
-20.01
-12.61
-6.29
-0.13
6.45
13.53
20.65
27.09
32.19
35.63
37.48
38.06
37.6
36.2
33.81
30.52
26.71
23.04
20.12
18.1
16.57
14.7
11.66
7.18
1.66
-4.01
-8.87
-12.43
-14.8
-16.59
-18.64
-21.64
-25.96
-31.55
-37.95
-44.4
-50.01
-54.02
-56.09
-56.52
-56.13
-56.02
-57.17
-60.15
-64.95
-71.19
-78.33
-85.89
-93.58
-101.22
-108.61
-115.58
-122.07
-128.33
-135
-143.09
-153.63
-167.33
-184.19
-203.34
-223.08
-241.17
-255.25
-263.23
-263.6
-255.59
-239.35
-215.91
-187.1
-155.22
-122.47
-90.36
-59.35
-29
1.39
31.95
61.74
88.8
110.92
126.56
135.46
138.65
137.85
134.91
131.25
127.98
126.02
126.14
128.7
133.43
139.31
144.93
149.11
151.37
152.04
151.93
151.74
151.63
151.08
149.16
144.89
137.62
127.22
114.18
99.6
85.16
72.76
64.18
60.49
61.6
66.24
72.28
77.44
80.06
79.55
76.5
72.27
68.36
65.82
64.99
65.45
66.33
66.6
65.35
62.01
56.36
48.62
39.33
29.35
19.61
10.93
3.84
-1.54
-5.52
-8.67
-11.6
-14.8
-18.43
-22.4
-26.45
-30.3
-33.81
-36.99
-39.93
-42.59
-44.72
-45.9
-45.74
-44.1
-41.26
-37.78
-34.33
-31.44
-29.39
-28.22
-27.77
-27.82
-28.03
-28.02
-27.33
-25.59
-22.65
-18.77
-14.49
-10.51
-7.23
-4.44
-1.25
3.58
10.94
20.79
31.82
41.96
49.26
52.89
53.46
52.61
52
52.43
53.51
54.13
53.19
50.21
45.38
39.24
32.29
24.82
17.05
9.25
1.83
-4.89
-10.8
-16.06
-20.92
-25.61
-30.29
-35.15
-40.45
-46.4
-52.95
-59.68
-65.98
-71.4
-75.77
-79.11
-81.22
-81.43
-78.67
-72.18
-62.12
-49.87
-37.6
-27.41
-20.36
-16.28
-14.15
-13.02
-12.71
-13.84
-17.29
-23.49
-32
-41.65
-51.13
-59.57
-66.8
-73.17
-79.08
-84.62
-89.5
-93.3
-95.82
-97.18
-97.69
-97.45
-96.06
-92.66
-86.24
-76.21
-62.76
-46.89
-30.14
-14.09
0.13
12.01
21.61
29.25
35.26
39.81
42.99
44.86
45.62
45.68
45.59
45.92
47.1
49.36
52.62
56.51
60.41
63.51
65.06
64.46
61.52
56.49
50.06
43.09
36.43
30.7
26.2
22.98
20.98
20.17
20.6
22.27
25.06
28.62
32.41
35.9
38.65
40.46
41.27
41.17
40.3
38.9
37.27
35.77
34.62
33.73
32.72
31.04
28.3
24.46
19.91
15.18
10.76
6.88
3.6
0.97
-0.89
-1.81
-1.82
-1.28
-0.96
-1.66
-3.87
-7.48
-11.7
-15.32
-17.16
-16.51
-13.29
-8.09
-1.85
4.42
9.97
14.44
17.77
20.06
21.38
21.83
21.46
20.46
19.08
17.63
16.38
15.46
14.88
14.56
14.33
13.95
13.2
11.93
10.17
8.18
6.32
4.92
4.09
3.73
3.6
3.54
3.61
3.95
4.67
5.67
6.62
7.15
7.09
6.55
5.84
5.23
4.75
4.17
3.16
1.55
-0.58
-2.95
-5.3
-7.65
-10.28
-13.63
-17.93
-23.05
-28.47
-33.53
-37.76
-41.09
-43.86
-46.66
-50.04
-54.28
-59.39
-65.13
-71.13
-76.96
-82.18
-86.35
-89.08
-90.14
-89.52
-87.52
-84.69
-81.7
-79.23
-77.73
-77.33
-77.89
-79.06
-80.47
-81.88
-83.24
-84.58
-85.92
-87.07
-87.72
-87.34
-85.44
-81.68
-76.09
-69.07
-61.34
-53.72
-46.89
-41.08
-36.05
-31.33
-26.53
-21.59
-16.86
-12.85
-9.73
-7.12
-4.02
0.73
7.93
17.76
29.8
43.3
57.49
71.7
85.21
97.13
106.44
112.26
114.49
114.12
113.22
114.38
119.63
129.48
142.36
154.8
162.4
161.31
149.49
127.48
98.34
66.39
35.89
9.8
-10.82
-26.43
-38.15
-46.95
-53.12
-56.33
-56.06
-51.91
-43.73
-31.52
-15.25
5.16
29.46
56.78
85.32
112.51
135.6
152.44
162.01
164.73
162.09
156.11
148.68
141.13
134.05
127.47
121.08
114.53
107.62
100.37
92.97
85.7
78.78
72.33
66.24
60.28
54.14
47.54
40.29
32.3
23.61
14.39
4.94
-4.3
-12.93
-20.67
-27.5
-33.63
-39.33
-44.79
-49.96
-54.62
-58.58
-61.89
-64.93
-68.37
-72.94
-79.25
-87.54
-97.62
-108.9
-120.54
-131.68
-141.68
-150.28
-157.56
-163.76
-168.9
-172.64
-174.28
-173.09
-168.63
-161.05
-151.1
-139.81
-128.2
-117.01
-106.61
-97.12
-88.59
-81.08
-74.66
-69.34
-64.95
-61.14
-57.37
-53.1
-47.88
-41.52
-34.16
-26.29
-18.55
-11.63
-6.03
-1.98
0.56
1.86
2.25
2.09
1.64
1.09
0.59
0.22
0.07
0.17
0.55
1.21
2.19
3.52
5.22
7.13
8.97
10.29
10.71
10.04
8.49
6.57
4.83
3.66
3.05
2.57
1.67
-0.13
-2.92
-6.34
-9.66
-12
-12.58
-10.96
-7.09
-1.34
5.73
13.49
21.42
29.1
36.15
42.19
46.83
49.81
51.22
51.53
51.5
51.91
53.28
55.71
58.94
62.66
66.66
71.02
76.02
81.91
88.73
96.12
103.46
110.01
115.25
119.09
122.01
124.85
128.57
133.83
140.78
148.97
157.59
165.83
173.32
180.36
188
197.82
211.47
229.99
253.09
278.61
302.58
320.06
326.51
319.32
298.7
267.39
229.65
189.51
149.55
110.5
71.72
31.97
-9.86
-54.1
-100.07
-145.67
-187.5
-221.48
-244.06
-253.72
-251.75
-241.86
-228.7
-216.05
-205.73
-197.69
-190.99
-184.82
-178.93
-173.42
-168.25
-163.08
-157.53
-151.65
-146.02
-141.35
-137.89
-135.03
-131.34
-125.07
-114.65
-99
-77.51
-49.93
-16.54
21.57
61.94
100.71
133.11
154.64
162.51
156.6
139.52
115.58
89.34
64.42
43.01
26.26
14.9
9.65
11.11
19.31
33.23
50.85
69.64
87.27
102.21
113.8
122.07
127.19
129.04
127.03
120.11
107.24
87.98
63.07
34.46
4.91
-22.97
-47.71
-69.3
-89.05
-108.64
-129.01
-149.52
-167.68
-179.81
-182.09
-172.02
-149.38
-116.59
-78.12
-39.22
-4.46
23.37
43.6
57.29
66.25
72.03
75.31
75.84
72.78
65.24
52.65
34.91
12.42
-14
-42.89
-71.93
-97.77
-116.53
-124.68
-120.38
-104.38
-80.04
-52.26
-25.67
-3.28
13.97
26.56
35.26
40.38
41.92
40.33
37.18
34.89
35.43
38.93
42.75
41.97
31.17
6.24
-34.53
-90.62
-159.98
-239.34
-323.76
-405.98
-476.63
-526.09
-547.47
-539.3
-506.21
-457.19
-402.01
-347.77
-297.39
-250.15
-203.79
-156.44
-107.55
-57.8
-8.55
38.55
81.55
118.38
147.19
167.1
178.39
182.66
182.16
179.01
174.72
170.02
165.21
160.46
155.94
151.73
147.66
143.35
138.43
133.01
127.88
124.46
124.36
128.66
137.31
149.03
161.59
172.7
180.84
185.79
188.55
190.84
194.31
200.05
208.5
219.54
232.59
246.46
259.15
267.86
269.52
261.7
243.41
215.37
179.4
137.39
90.78
40.98
-9.6
-56.67
-94.37
-116.92
-120.86
-106.79
-79.64
-47.17
-17.56
2.91
11.43
8.77
-1.33
-13.51
-22.3
-23.29
-14.05
5.55
33.55
66.54
100.38
130.84
154.04
167.11
168.8
159.9
143.11
122.29
101.11
81.89
65.09
49.72
34.36
18.12
1.22
-15.32
-30.17
-42.37
-51.58
-58.06
-62.49
-65.76
-68.86
-72.73
