0
0
0
0
0
0
0
0
0
0
0
0.01
0.01
0
-0.03
-0.05
-0.05
0
0.13
0.36
0.66
1.01
1.37
1.72
2.06
2.4
2.79
3.24
3.8
4.42
5.06
5.66
6.2
6.68
7.15
7.68
8.31
9.14
10.09
11.04
11.88
12.56
13.14
13.76
14.65
15.96
17.91
20.32
22.9
25.38
27.58
29.57
31.68
34.32
37.81
42.54
48.15
54.1
59.83
64.97
69.58
74.14
79.34
85.71
93.76
103
112.62
121.73
129.77
136.75
143.3
150.75
157.77
166.64
177.95
191.79
206.97
220.57
228.25
225.36
208.53
176.87
132.76
80.05
23.07
-34.94
-92.44
-149.16
-205.23
-260.37
-313.74
-363.87
-409.83
-450.91
-486.5
-515.74
-537.23
-549.22
-549.96
-538.37
-514.21
-478.67
-433.88
-382.45
-327.02
-269.84
-212.63
-156.66
-102.95
-52.37
-5.9
35.58
71.43
101.35
125.5
144.38
158.69
169.15
176.37
180.75
182.57
182.07
179.51
175.23
169.65
163.18
156.15
148.81
141.3
133.69
126.02
118.33
110.69
103.16
95.8
88.68
81.83
75.25
68.95
62.95
57.25
51.86
46.78
42.03
37.59
33.45
29.61
26.07
22.81
19.83
17.11
14.67
12.48
10.54
8.83
7.35
6.07
4.97
4.05
3.27
2.62
2.09
1.65
1.3
1.01
0.79
0.61
0.48
0.37
0.29
0.24
0.2
0.18
0.17
0.18
0.19
0.21
0.24
0.28
0.31
0.36
0.4
0.44
0.49
0.54
0.59
0.64
0.69
0.75
0.82
0.89
0.96
1.05
1.14
1.24
1.36
1.49
1.63
1.8
1.98
2.18
2.41
2.66
2.93
3.23
3.57
3.93
4.33
4.77
5.23
5.74
6.29
6.88
7.51
8.18
8.9
9.66
10.46
11.31
12.2
13.16
14.17
15.25
16.39
17.56
18.73
19.91
21.04
22.13
23.1
23.87
24.34
24.34
23.73
22.39
20.26
17.36
13.79
9.65
5.15
0.48
-4.17
-8.67
-12.86
-16.61
-19.76
-22.18
-23.77
-24.5
-24.51
-24.02
-23.32
-22.66
-22.18
-21.86
-21.51
-20.92
-19.97
-18.7
-17.4
-16.44
-16.12
-16.53
-17.47
-18.48
-19.08
-18.96
-18.21
-17.25
-16.74
-17.2
-18.8
-21.22
-23.77
-25.79
-26.8
-26.86
-26.43
-26.17
-26.75
-28.7
-32.43
-37.95
-44.53
-50.5
-53.36
-50.55
-40.58
-23.99
-3.43
17.22
34.3
45.69
51.34
52.72
51.79
49.98
47.85
45.34
42.37
39.23
36.54
34.93
34.5
34.76
34.83
33.86
31.47
27.86
23.72
19.85
16.78
14.61
12.98
11.4
9.45
6.97
4.06
1
-1.97
-4.67
-7.06
-9.17
-11.09
-12.97
-14.99
-17.29
-19.94
-22.95
-26.2
-29.59
-32.98
-36.25
-39.2
-41.54
-42.8
-42.53
-40.44
-36.57
-31.27
-25.14
-18.69
-12.24
-5.88
0.48
6.91
13.37
19.64
25.43
30.38
34.25
36.94
38.47
39.05
38.96
38.51
37.94
37.35
36.71
35.92
34.91
33.65
32.21
30.72
29.26
27.82
26.31
24.66
22.79
20.77
18.73
16.81
15.03
13.32
11.47
9.32
6.8
3.99
1.08
-1.71
-4.26
-6.54
-8.66
-10.76
-12.94
-15.24
-17.59
-19.86
-21.94
-23.76
-25.29
-26.57
-27.7
-28.85
-30.22
-32.01
-34.22
-36.66
-38.9
-40.46
-40.95
-40.18
-38.16
-34.96
-30.58
-24.97
-18.19
-10.56
-2.67
4.77
11.19
16.34
20.32
23.37
25.75
27.52
28.66
29.19
29.21
28.96
28.66
28.48
28.39
28.28
27.95
27.25
26.14
24.66
22.86
20.9
18.88
16.96
15.23
13.77
12.6
11.66
10.79
9.78
8.47
6.75
4.7
2.49
0.37
-1.46
-2.87
-3.92
-4.77
-5.67
-6.96
-8.82
-11.28
-14.09
-16.89
-19.26
-21.03
-22.28
-23.38
-24.73
-26.59
-28.96
-31.63
-34.29
-36.68
-38.58
-39.84
-40.26
-39.63
-37.82
-34.88
-31.02
-26.53
-21.62
-16.4
-10.88
-5.06
0.92
6.84
12.4
17.34
21.41
24.45
26.39
27.3
27.35
26.72
25.66
24.33
22.9
21.51
20.34
19.57
19.25
19.28
19.38
19.18
18.36
16.81
14.59
11.93
9.14
6.42
3.9
1.56
-0.65
-2.76
-4.72
-6.47
-7.95
-9.28
-10.66
-12.3
-14.25
-16.39
-18.46
-20.21
-21.6
-22.69
-23.69
-24.76
-25.98
-27.41
-29.03
-30.74
-32.23
-33.09
-32.86
-31.3
-28.44
-24.67
-20.47
-16.2
-11.99
-7.79
-3.5
0.94
5.5
10.1
14.61
18.9
22.72
25.83
28.04
29.29
29.77
29.68
29.22
28.5
27.54
26.37
25.12
24.01
23.2
22.69
22.3
21.74
20.78
19.34
17.54
15.61
13.76
12.09
10.57
9.11
7.57
5.88
4.01
2.02
-0.05
-2.19
-4.44
-6.8
-9.29
-11.81
-14.25
-16.45
-18.3
-19.79
-21.01
-22.12
-23.35
-25.01
-27.3
-30.32
-33.86
-37.46
-40.42
-42.06
-41.93
-39.97
-36.53
-32.13
-27.27
-22.26
-17.21
-12.1
-6.86
-1.48
3.97
9.32
14.32
18.7
22.22
24.81
26.59
27.84
28.83
29.75
30.59
31.21
31.52
31.46
31.07
30.41
29.5
28.37
26.95
25.2
23.08
20.63
17.96
15.29
12.88
10.91
9.42
8.17
6.81
4.95
2.45
-0.57
-3.71
-6.54
-8.77
-10.39
-11.66
-12.88
-14.3
-15.92
-17.53
-18.87
-19.74
-20.21
-20.55
-21.09
-22.08
-23.58
-25.49
-27.59
-29.67
-31.53
-32.95
-33.73
-33.66
-32.64
-30.71
-27.96
-24.5
-20.39
-15.61
-10.18
-4.14
2.25
8.66
14.64
19.8
23.8
26.47
27.81
28.01
27.51
26.85
26.53
26.86
27.79
28.93
29.75
29.81
28.94
27.34
25.44
23.68
22.32
21.36
20.61
19.87
19.04
18.05
16.85
15.35
13.41
10.94
8.05
5.02
2.19
-0.17
-2
-3.49
-4.87
-6.32
-7.85
-9.35
-10.76
-12.09
-13.51
-15.14
-16.96
-18.77
-20.32
-21.54
-22.63
-24.02
-26.04
-28.7
-31.53
-33.8
-34.88
-34.5
-32.88
-30.48
-27.74
-24.88
-21.82
-18.37
-14.37
-9.83
-4.93
-0.02
4.54
8.43
11.42
13.49
14.76
15.43
15.74
15.91
16.07
16.35
16.77
17.32
17.84
18.13
18
17.37
16.34
15.14
14.02
13.16
12.52
11.96
11.25
10.15
8.57
6.55
4.31
2.12
0.2
-1.38
-2.76
-4.17
-5.84
-7.81
-9.92
-11.78
-13.09
-13.7
-13.75
-13.65
-13.78
-14.45
-15.68
-17.29
-19.07
-20.87
-22.69
-24.51
-26.23
-27.53
-27.97
-27.18
-25.06
-21.86
-18
-13.95
-9.95
-6.02
-2.05
2.04
6.2
10.27
14.1
17.54
20.58
23.16
25.2
26.58
27.19
27.06
26.39
25.45
24.49
23.68
23.04
22.48
21.9
21.18
20.2
18.88
17.17
15.17
13.09
11.13
9.41
7.81
6.01
3.72
0.86
-2.38
-5.6
-8.41
-10.68
-12.54
-14.31
-16.26
-18.47
-20.74
-22.79
-24.41
-25.62
-26.65
-27.75
-29.1
-30.62
-32.09
-33.27
-34.15
-34.92
-35.87
-37.17
-38.64
-39.81
-40.06
-38.97
-36.44
-32.74
-28.35
-23.71
-19.19
-14.94
-11.01
-7.4
-4.06
-1.01
1.67
3.8
5.18
5.64
5.1
3.61
1.3
-1.7
-5.3
-9.42
-13.95
-18.75
-23.65
-28.46
-32.98
-37.02
-40.33
-42.64
-43.72
-43.34
-41.32
-37.54
-31.87
-24.29
-14.88
-3.93
8.07
20.47
32.56
43.63
53.07
60.36
65.2
67.53
67.58
65.79
62.69
58.73
54.2
49.24
43.9
38.26
32.41
26.41
20.18
13.46
5.92
-2.61
-12
-21.7
-30.92
-38.83
-44.93
-49.02
-51.3
-52.03
-51.44
-49.58
-46.4
-41.9
-36.23
-29.72
-22.77
-15.75
-8.84
-2.13
4.35
10.53
16.28
21.41
25.83
29.52
32.63
35.3
37.74
40.12
42.62
45.44
48.68
52.31
56.05
59.47
62.11
63.66
64.08
63.54
62.38
60.9
59.33
57.89
56.83
56.51
57.36
59.65
63.26
67.41
70.64
71.14
67.24
58.1
44.17
27.06
9.18
-7.13
-20.22
-29.55
-35.54
-39.24
-41.92
-44.64
-48.11
-52.56
-57.8
-63.22
-68.02
-71.34
-72.45
-70.87
-66.44
-59.31
-49.98
-39.21
-27.94
-17.06
-7.15
1.55
9.12
15.81
21.79
27.1
31.69
35.47
38.42
40.67
42.37
43.72
44.92
46.06
47.14
48
48.32
47.75
46.01
43.08
39.25
35.06
31.07
27.64
24.74
21.98
18.85
14.94
10.26
5.16
0.26
-3.91
-7.11
-9.44
-11.22
-12.85
-14.57
-16.49
-18.62
-20.95
-23.49
-26.26
-29.3
-32.51
-35.75
-38.83
-41.56
-43.87
-45.75
-47.24
-48.27
-48.71
-48.33
-46.92
-44.4
-40.81
-36.27
-30.97
-24.99
-18.39
-11.23
-3.73
3.68
10.41
15.87
19.64
21.71
22.38
22.2
21.69
21.2
20.86
20.62
20.39
20.07
19.55
18.71
17.37
15.43
12.98
10.3
7.77
5.64
3.96
2.52
1
-0.82
-3.01
-5.46
-8.01
-10.48
-12.74
-14.68
-16.24
-17.38
-18.08
-18.39
-18.37
-18.11
-17.68
-17.11
-16.35
-15.32
-13.91
-12.05
-9.85
-7.53
-5.43
-3.85
-2.92
-2.52
-2.32
-1.88
-0.82
1.18
4.21
8.22
13.02
18.35
23.89
29.28
34.24
38.49
41.77
43.87
44.61
43.95
41.95
38.9
35.26
31.6
28.51
26.37
25.17
24.45
23.39
21.13
17.14
11.68
5.81
1.17
-0.66
1.3
6.98
15.34
24.7
33.27
39.57
42.5
41.46
36.41
27.99
17.76
8.03
1.42
0.07
4.85
15.16
29.18
44.63
59.42
72.02
81.39
86.72
87.33
82.89
73.61
60.51
45.2
29.48
14.79
2.06
-8.41
-16.66
-22.78
-26.86
-28.93
-29.1
-27.67
-25.01
-21.64
-18.09
-14.84
-12.29
-10.66
-10.01
-10.21
-11.07
-12.35
-13.86
-15.43
-16.93
-18.26
-19.4
-20.38
-21.31
-22.28
-23.32
-24.26
-24.85
-24.77
-23.85
-22.15
-19.96
-17.72
-15.85
-14.66
-14.3
-14.84
-16.26
-18.46
-21.15
-23.85
-25.9
-26.61
-25.44
-22.29
-17.68
-12.6
-8.35
-6.12
-6.53
-9.58
-14.56
-20.43
-26.14
-30.91
-34.44
-36.8
-38.34
-39.47
-40.48
-41.51
-42.56
-43.52
-44.33
-45.03
-45.75
-46.57
-47.27
-47.26
-45.72
-41.88
-35.34
-26.3
-15.44
-3.64
8.25
19.55
29.81
38.66
45.82
51.25
55.18
58.14
60.68
63.08
65.02
65.8
64.65
61.2
55.81
49.37
42.93
37.24
32.43
28.14
23.82
19.08
13.87
8.41
3
-2.25
-7.38
-12.53
-17.79
-23.06
-28.2
-33.04
-37.45
-41.38
-44.8
-47.66
-49.9
-51.5
-52.56
-53.3
-54.07
-55.19
-56.92
-59.31
-62.24
-65.44
-68.6
-71.27
-72.98
-73.22
-71.59
-67.92
-62.41
-55.61
-48.25
-41.03
-34.34
-28.27
-22.55
-16.85
-10.93
-4.77
1.35
7.03
11.99
16.19
19.79
23.01
25.89
28.2
29.62
29.97
29.46
28.74
28.52
29.24
30.74
32.36
33.3
33.02
31.46
28.98
26.01
22.8
19.32
15.42
11
6.2
1.32
-3.33
-7.54
-11.29
-14.64
-17.6
-20.05
-21.87
-23.07
-23.89
-24.83
-26.43
-29.08
-32.82
-37.26
-41.77
-45.67
-48.44
-49.8
-49.68
-48.2
-45.54
-41.96
-37.69
-32.96
-27.88
-22.5
-16.82
-10.8
-4.47
2.07
8.68
15.18
21.37
26.97
31.67
35.17
37.23
37.83
37.19
35.76
34.06
32.47
31.07
29.64
27.87
25.52
22.6
19.39
16.2
13.32
10.8
8.58
6.57
4.7
3.07
1.78
0.92
0.48
0.31
0.24
0.03
-0.43
-1.19
-2.23
-3.5
-4.91
-6.4
-7.96
-9.55
-11.19
-12.88
-14.63
-16.47
-18.46
-20.68
-23.24
-26.2
-29.51
-32.98
-36.28
-39.01
-40.82
-41.49
-40.99
-39.43
-36.99
-33.88
-30.26
-26.27
-22.03
-17.56
-12.82
-7.66
-1.99
4.18
10.63
16.96
22.7
27.42
30.87
33.05
34.14
34.44
34.24
33.73
33.01
32.09
30.97
29.71
28.42
27.21
26.14
25.24
24.46
23.76
23.13
22.49
21.7
20.6
19.08
17.21
15.21
13.37
11.84
10.56
9.24
7.57
5.41
2.84
0.09
-2.62
-5.12
-7.35
-9.31
-11.05
-12.71
-14.51
-16.71
-19.51
-22.86
-26.46
-29.8
-32.48
-34.3
-35.42
-36.24
-37.28
-38.98
-41.54
-44.94
-48.93
-53.04
-56.69
-59.32
-60.47
-59.92
-57.68
-54.02
-49.3
-43.95
-38.34
-32.8
-27.65
-23.1
-19.26
-16.12
-13.52
-11.29
-9.36
-7.83
-6.98
-7.22
-8.93
-12.41
-17.74
-24.75
-33.07
-42.17
-51.46
-60.36
-68.22
-74.31
-77.8
-77.86
-73.92
-65.81
-53.97
-39.33
-23.2
-7.01
7.82
20.14
29.25
35.07
38.28
40.01
41.46
43.35
45.65
47.75
48.9
48.94
48.13
47.33
47.54
49.33
52.38
55.96
59.16
61.8
64.59
68.34
73.58
80.26
87.66
94.68
100.53
104.87
108.2
111.52
115.11
118.89
122.91
127.5
132.97
139.73
147.26
154.89
162.24
167.34
169.17
169.03
169.94
174.55
184.48
197.41
209.76
218.37
217.37
203.2
177.46
146
115.18
91.15
74.07
62.71
56.14
47.21
29.55
2.38
-29.76
-61.56
-86.76
-106.93
-124.6
-141.3
-166.47
-209
-270.45
-345.21
-426.24
-504.85
-582.08
-659.79
-682.45
-613.74
-460
-265
-74.75
57.4
145.26
202.88
238.86
257.08
262.92
253.92
231.96
204.13
177.52
159.83
148.47
139.92
132.61
119.95
95.66
59.53
16.45
-28.11
-68.13
-105.94
-145.37
-189.42
-243.27
-309.78
-384.16
-455.09
-509.85
-537.6
-537.61
-515.44
-479.93
-441.83
-409.61
-385.8
-368.16
-353.1
-337.22
-320.63
-304.14
-287.77
-271.16
-253.68
-234.4
-212.9
-189.77
-166.27
-144.28
-124.86
-107.83
-92.03
-76.2
-59.44
-41.67
-23.65
-6.58
8.49
21.07
31.37
40.1
48.06
55.76
63.26
70.16
75.91
80.05
82.48
83.44
83.37
82.76
81.91
80.96
79.85
78.5
76.91
75.13
73.28
71.41
69.55
67.64
65.68
63.83
62.38
61.72
62.17
63.86
66.6
70.02
73.69
77.38
81.2
85.55
91.01
98.02
106.73
116.8
127.7
138.85
149.9
160.91
172.28
184.62
198.69
215.21
234.78
257.36
281.92
306.12
326.7
340.31
344.69
339.46
326.32
308.2
288.13
268.24
249.38
231.43
214.04
197.16
181.15
166.5
153.4
141.55
130.29
118.93
107.1
94.94
83.01
71.94
62.07
53.24
44.88
36.35
27.24
17.65
8.04
-0.96
-8.92
-15.71
-21.49
-26.47
-30.72
-34.09
-36.28
-36.98
-36.03
-33.48
-29.64
-24.9
-19.74
-14.59
-9.72
-5.29
-1.35
2.15
5.23
7.94
10.29
12.34
14.16
15.79
17.2
18.32
19.02
19.21
18.94
18.41
17.92
17.77
18.1
18.88
19.85
20.72
21.28
21.45
21.6
21.96
22.49
22.78
22.5
21.6
20.42
19.32
18.45
18.01
17.81
17.43
16.4
14.5
11.88
8.81
5.44
1.65
-1.9
-4.78
-6.99
-8.95
-11.07
-13.21
-14.87
-15.31
-13.98
-8.01
4.33
22.62
44.12
65.37
83.85
98.45
109.19
116.56
126.54
143.61
168.27
196.62
223.29
244.56
259.34
268.32
272.9
283.01
305.96
342.62
386.76
429.68
465.27
491.56
509.5
521.36
540.81
578.49
636.64
707.82
780.33
844.56
895.25
930.85
883.29
717.12
444.99
126.36
-171.86
-410.68
-582.84
-699.05
-774.8
-823.87
-845.51
-838.93
-809.65
-770.49
-734.93
-709.99
-695.32
-685.34
-674.07
-650.18
-609.02
-555.36
-501.27
-458.8
-433.69
-424.33
-424.72
-428.16
-424.13
-405.38
-370.11
-322.25
-268.71
-216.5
-171.65
-139.02
-121.83
-118
-122.55
-129.09
-131.69
-125.96
-109.98
-84.96
-55.13
-26.16
-1.64
17.22
31.7
44.15
56.36
68.53
78.94
85.02
85
79.24
70.24
61.26
54.54
50.17
46.46
41.46
34.65
27.41
22.19
20.78
22.94
26.55
28.94
28.8
27.19
27.12
31.89
43.31
60.67
80.91
100.01
114.51
122.65
124.54
121.76
116.44
110.56
105.33
101
97.04
92.59
86.89
79.78
71.65
63.12
54.52
45.72
36.19
25.65
14.56
4.27
-3.57
-7.81
-8.52
-7.05
-5.43
-5.37
-7.61
-11.87
-17.39
-23.56
-30.36
-38.09
-46.91
-56.25
-64.81
-70.96
-73.38
-71.69
-66.57
-59.37
-51.69
-44.9
-40.04
-37.85
-38.79
-42.84
-49.31
-56.8
-63.47
-67.61
-68.19
-65.05
-58.68
-49.69
-38.38
-24.61
-8.15
10.94
32.03
53.92
75.18
94.37
110.3
122.06
128.94
130.49
126.66
118.03
105.86
91.95
78.21
66.17
56.66
49.71
44.76
40.83
36.84
31.74
24.82
15.81
5
-6.83
-18.64
-29.4
-38.35
-45.01
-49.13
-50.44
-48.7
-43.72
-35.59
-24.82
-12.26
1.06
14.17
26.32
37.06
46.12
53.23
58.11
60.41
59.8
56.14
49.57
40.62
30.18
19.41
9.54
1.64
-3.72
-6.69
-8.19
-9.81
-13.26
-19.85
-29.88
-42.42
-55.56
-67.03
-74.89
-78.04
-76.41
-70.65
-61.83
-51.17
-39.8
-28.8
-19.16
-11.53
-6.1
-2.51
0.03
2.29
4.72
7.28
9.55
11.09
11.78
11.94
12.09
12.7
13.95
15.67
17.49
19.1
20.36
21.33
22.1
22.71
23.04
22.87
22.05
20.47
18.12
15.03
11.24
6.83
1.96
-3.12
-8.04
-12.39
-15.88
-18.44
-20.16
-21.31
-22.12
-22.63
-22.61
-21.64
-19.25
-15.25
-9.85
-3.68
2.44
7.7
11.65
14.21
15.66
16.48
17.09
17.77
18.6
19.36
19.77
19.56
18.63
17.15
15.43
13.75
12.22
10.75
9.11
7.2
5.11
3.1
1.48
0.39
-0.27
-0.78
-1.46
-2.44
-3.66
-4.89
-5.87
-6.51
-6.84
-7.12
-7.63
-8.61
-10.2
-12.34
-14.93
-17.75
-20.53
-22.93
-24.58
-25.15
-24.51
-22.74
-20.09
-16.88
-13.31
-9.4
-5
0.03
5.63
11.42
16.8
21.15
24.09
25.73
26.57
27.27
28.3
29.72
31.23
32.36
32.81
32.6
32
31.28
30.57
29.7
28.42
26.6
24.35
21.95
19.68
17.65
15.72
13.64
11.19
8.36
5.34
2.38
-0.3
-2.7
-4.94
-7.2
-9.56
-11.94
-14.18
-16.19
-18.09
-20.17
-22.71
-25.84
-29.39
-32.97
-36.11
-38.44
-39.78
-40.15
-39.62
-38.33
-36.41
-33.96
-31.06
-27.64
-23.58
-18.66
-12.81
-6.19
0.7
7.14
12.5
16.42
18.96
20.42
21.22
21.66
21.85
21.78
21.45
20.94
20.41
19.99
19.69
19.36
18.75
17.65
16.05
14.11
12.18
10.55
9.32
8.34
7.28
5.84
3.93
1.74
-0.38
-2.12
-3.47
-4.7
-6.2
-8.24
-10.78
-13.47
-15.92
-17.86
-19.37
-20.76
-22.43
-24.6
-27.28
-30.2
-33.02
-35.43
-37.25
-38.43
-38.98
-38.89
-38.09
-36.47
-33.94
-30.52
-26.37
-21.75
-16.96
-12.2
-7.51
-2.85
1.85
6.55
11
14.85
17.76
19.57
20.39
20.57
20.51
20.55
20.81
21.17
21.46
21.51
21.33
21.01
20.71
20.5
20.37
20.21
19.94
19.55
19.04
18.44
17.81
17.13
16.38
15.48
14.27
12.61
10.37
7.61
4.55
1.6
-0.88
-2.68
-3.9
-4.86
-6
-7.64
-9.88
-12.58
-15.44
-18.16
-20.51
-22.43
-23.89
-24.93
-25.57
-25.82
-25.7
-25.25
-24.55
-23.56
-22.14
-20.04
-17.02
-12.98
-8.12
-2.9
2.09
6.34
9.56
11.74
13.08
13.87
14.37
14.8
15.29
15.91
16.62
17.27
17.65
17.54
16.87
15.75
14.39
13.04
11.84
10.77
9.73
8.68
7.66
6.8
6.21
5.89
5.74
5.58
5.28
4.77
4.09
3.24
2.25
1.08
-0.3
-1.86
-3.49
-5.07
-6.49
-7.74
-8.92
-10.16
-11.61
-13.35
-15.33
-17.39
-19.33
-20.91
-21.95
-22.34
-22.03
-21.04
-19.46
-17.49
-15.3
-13.03
-10.64
-7.95
-4.77
-1.02
3.1
7.21
10.85
13.67
15.54
16.55
16.84
16.61
16.02
15.23
14.42
13.79
13.41
13.2
12.9
12.23
11.02
9.37
7.59
6.14
5.34
5.23
5.56
5.85
5.66
4.78
3.26
1.4
-0.49
-2.13
-3.46
-4.53
-5.51
-6.53
-7.72
-9.03
-10.37
-11.6
-12.62
-13.48
-14.37
-15.53
-17.13
-19.19
-21.54
-23.95
-26.17
-28.04
-29.47
-30.41
-30.82
-30.73
-30.19
-29.24
-27.88
-25.95
-23.18
-19.25
-14.02
-7.55
-0.19
7.49
14.88
21.39
26.55
30.08
31.89
32.13
31.15
29.37
27.14
24.68
22.01
19.06
15.85
12.54
9.49
7.05
5.42
4.58
4.28
4.22
4.21
4.19
4.21
4.25
4.23
3.98
3.39
2.49
1.38
0.25
-0.8
-1.77
-2.75
-3.82
-5.03
-6.39
-7.9
-9.5
-11.18
-12.88
-14.52
-16.04
-17.44
-18.79
-20.27
-22.01
-24.05
-26.27
-28.34
-29.86
-30.5
-30.17
-29.08
-27.54
-25.84
-24.01
-21.77
-18.7
-14.48
-9.14
-3.08
3
8.51
13.07
16.73
19.75
22.4
24.82
26.89
28.41
29.2
29.24
28.65
27.59
26.17
24.48
22.55
20.51
18.49
16.63
14.93
13.3
11.6
9.75
7.76
5.69
3.59
1.36
-1.13
-3.98
-7.23
-10.82
-14.72
-19
-23.79
-29.2
-35.21
-41.61
-48.12
-54.46
-60.44
-65.98
-70.96
-75.28
-78.8
-81.44
-83.3
-84.63
-85.85
-87.26
-88.93
-90.47
-91.15
-90.03
-86.34
-79.78
-70.58
-59.41
-47.03
-34.07
-20.92
-7.81
5
17.24
28.62
39.06
48.74
58.06
67.46
77.21
87.33
97.53
107.42
116.56
124.61
131.4
136.92
141.31
144.72
147.21
148.63
148.7
147.12
143.79
138.92
132.94
126.49
120.08
114.07
108.58
103.61
99.05
94.71
90.22
84.95
78.11
68.91
56.97
42.64
27.1
11.97
-1.25
-11.73
-19.65
-25.84
-31.22
-36.19
-40.51
-43.64
-45.47
-46.78
-49.16
-54.27
-62.93
-74.47
-86.9
-97.72
-104.96
-107.83
-106.74
-102.66
-96.49
-88.61
-79.07
-68.01
-56.04
-44.23
-33.78
-25.5
-19.62
-15.8
-13.53
-12.46
-12.49
-13.64
-15.75
-18.32
-20.54
-21.54
-20.68
-17.83
-13.41
-8.17
-3.03
1.25
4.2
5.73
6.03
5.46
4.28
2.64
0.56
-1.97
-4.81
-7.65
-10.17
-12.14
-13.64
-14.99
-16.54
-18.47
-20.72
-23.09
-25.39
-27.63
-29.84
-31.97
-33.67
-34.37
-33.52
-30.85
-26.53
-21.06
-15.07
-9.08
-3.44
1.69
6.16
9.83
12.48
13.97
14.2
13.24
11.32
8.82
6.25
4.11
2.81
2.52
3.14
4.38
5.84
7.09
7.71
7.41
6.01
3.55
0.26
-3.52
-7.45
-11.39
-15.34
-19.38
-23.56
-27.81
-31.9
-35.59
-38.67
-40.99
-42.38
-42.64
-41.54
-38.92
-34.93
-30.1
-25.26
-21.29
-18.83
-18.04
-18.55
-19.62
-20.46
-20.49
-19.42
-17.26
-14.15
-10.28
-5.9
-1.2
3.55
8.27
13.02
18.08
23.77
30.18
36.96
43.36
48.57
52.03
53.83
54.65
55.49
57.23
60.22
64.14
68.07
70.94
71.83
70.28
66.32
60.38
52.99
44.75
36.21
27.99
20.78
15.18
11.48
9.38
7.94
5.77
1.58
-5.32
-14.72
-25.6
-36.49
-45.99
-53.12
-57.42
-58.9
-57.89
-55
-51.12
-47.43
-45.2
-45.49
-48.68
-54.33
-61.24
-67.9
-73.08
-76.21
-77.4
-77.15
-75.91
-73.73
-70.27
-65.01
-57.61
-48.14
-37.06
-25.09
-13.06
-1.67
8.55
17.35
24.7
30.84
36.19
41.17
46.06
50.79
54.92
57.79
58.73
57.37
53.83
48.71
42.97
37.65
33.53
30.96
29.75
29.35
29.07
28.4
27.09
25.25
23.16
21.05
18.91
16.47
13.33
9.17
4.02
-1.72
-7.43
-12.53
-16.78
-20.33
-23.59
-26.94
-30.53
-34.16
-37.45
-40.06
-41.82
-42.75
-42.98
-42.59
-41.59
-40
-37.85
-35.21
-32.16
-28.77
-25.08
-21.23
-17.46
-14.11
-11.47
-9.6
-8.37
-7.51
-6.86
-6.45
-6.39
-6.76
-7.42
-7.99
-8.12
-7.61
-6.55
-5.29
-4.14
-3.3
-2.73
-2.29
-1.84
-1.39
-1.04
-1.03
-1.52
-2.46
-3.6
-4.42
-4.36
-3
-0.29
3.45
7.55
11.23
13.86
15.17
15.31
14.74
14.08
13.93
14.7
16.66
19.93
24.56
30.57
37.9
46.33
55.44
64.67
73.44
81.32
88.15
94.08
99.44
104.58
109.74
114.94
119.97
124.45
127.91
130.01
130.65
130.04
128.65
127.03
125.58
124.45
123.5
122.32
120.44
117.45
113.16
107.61
101.08
93.96
86.54
78.91
70.9
62.12
52.22
41.02
28.74
15.95
3.49
-7.74
-16.98
-23.96
-29.12
-33.63
-39.14
-47.17
-58.29
-71.6
-84.72
-94.57
-98.55
-95.52
-86.28
-73.16
-59.01
-46.29
-36.48
-30.03
-26.7
-25.98
-27.34
-30.48
-35.31
-41.86
-50.15
-59.82
-69.96
-78.94
-84.72
-85.39
-79.88
-68.47
-52.83
-35.52
-19.16
-5.75
3.73
9.05
10.31
7.42
0.11
-11.71
-27.42
-45.3
-62.72
-76.88
-85.77
-88.82
-87.06
-82.54
-77.51
-73.59
-71.48
-70.98
-71.48
-72.38
-73.34
-74.25
-74.98
-75.11
-74.01
-71.13
-66.39
-60.44
-54.51
-49.79
-46.9
-45.56
-44.79
-43.52
-41.21
-38.03
-34.71
-31.98
-30.13
-28.84
-27.53
-25.68
-23.19
-20.36
-17.6
-15.06
-12.49
-9.22
-4.59
1.71
9.32
17.36
24.67
30.36
34.02
35.87
36.52
36.64
36.68
36.81
36.92
36.8
36.23
35
32.97
30.13
26.69
23.01
19.53
16.48
13.78
11.06
7.85
3.83
-0.93
-6.09
-11.11
-15.5
-18.95
-21.46
-23.13
-24.15
-24.68
-24.77
-24.48
-23.86
-23.03
-22.13
-21.32
-20.6
-19.85
-18.84
-17.34
-15.3
-12.89
-10.41
-8.17
-6.33
-4.81
-3.48
-2.15
-0.74
0.78
2.43
4.29
6.43
8.83
11.41
14.12
17.12
20.89
26.17
33.55
43.07
53.89
64.32
72.26
75.83
73.99
66.83
55.53
41.95
28.14
15.86
6.22
-0.36
-4.05
-5.37
-5.03
-3.68
-1.92
-0.34
0.58
0.45
-0.94
-3.58
-7.33
-11.85
-16.68
-21.14
-24.36
-25.37
-23.44
-18.41
-10.73
-1.35
8.81
19.22
29.94
41.3
53.36
65.47
76.14
83.62
86.68
85.26
80.66
74.87
69.61
65.43
61.55
56.49
49.13
39.46
28.69
18.52
10.09
3.45
-2.41
-8.71
-16.08
-24.08
-31.59
-37.38
-40.89
-42.33
-42.48
-42.06
-41.43
-40.4
-38.36
-34.73
-29.25
-22.24
-14.51
-7.12
-0.88
3.88
7.43
10.28
12.68
14.32
14.29
11.61
5.85
-2.43
-11.75
-20.21
-26.25
-29.17
-29.3
-27.58
-25.07
-22.52
-20.18
-18
-15.71
-13.07
-9.87
-6
-1.47
3.55
8.71
13.56
17.65
20.66
22.44
23.01
22.47
20.99
18.79
16.2
13.54
11.1
9.02
7.23
5.62
4.09
2.66
1.52
0.91
0.99
1.76
3.04
4.5
5.77
6.51
6.54
5.91
4.82
3.53
2.16
0.66
-1.13
-3.29
-5.69
-7.96
-9.64
-10.47
-10.49
-10.06
-9.62
-9.44
-9.44
-9.28
-8.54
-7.09
-5.15
-3.27
-2.07
-1.86
-2.4
-2.99
-2.69
-0.87
2.49
6.64
10.32
12.24
11.59
8.35
3.21
-2.56
-7.59
-10.74
-11.28
-9.11
-4.64
1.3
7.7
13.65
18.5
21.86
23.57
23.61
22
18.92
14.6
9.35
3.38
-3.25
-10.59
-18.43
-26.07
-32.23
-35.37
-34.38
-29.23
-21.18
-12.4
-5.07
-0.57
1.12
1.21
1.48
3.54
8.04
14.47
21.2
26.04
26.96
22.82
13.8
1.41
-11.94
-23.72
-31.92
-35.47
-34.17
-28.58
-19.75
-9.19
1.26
9.76
14.88
16.16
14.17
10.21
5.63
1.31
-2.5
-5.75
-8.09
-8.73
-6.74
-1.75
5.48
13.21
19.4
22.68
22.91
21.06
18.47
16.03
13.78
10.99
6.8
0.67
-7.26
-16.25
-25.07
-32.38
-36.87
-37.62
-34.34
-27.54
-18.53
-9.1
-1.02
4.32
6.11
4.08
-1.62
-10.4
-21.09
-32.03
-41.22
-46.92
-48.18
-45.16
-39.1
-31.83
-25.13
-20.13
-17.06
-15.32
-13.85
-11.7
-8.36
-3.98
0.76
5.05
8.35
10.62
12.28
13.91
15.79
17.8
19.48
20.32
19.99
18.53
16.1
12.98
9.38
5.53
1.75
-1.61
-4.29
-6.25
-7.73
-9.15
-10.87
-13.02
-15.43
-17.77
-19.77
-21.37
-22.67
-23.86
-24.95
-25.76
-25.99
-25.42
-24.11
-22.47
-21.04
-20.23
-20.07
-20.16
-19.87
-18.6
-16.06
-12.37
-7.9
-3.13
1.56
5.98
10.03
13.75
17.16
20.22
22.88
25.02
26.54
27.44
27.81
27.88
27.87
27.93
28.09
28.26
28.35
28.31
28.15
27.89
27.44
26.59
25.1
22.9
20.17
17.42
15.2
13.88
13.47
13.6
13.73
13.41
12.5
11.13
9.52
7.86
6.2
4.48
2.68
0.9
-0.73
-2.14
-3.38
-4.71
-6.46
-8.88
-11.98
-15.52
-19.07
-22.16
-24.42
-25.67
-25.87
-25.13
-23.55
-21.3
-18.55
-15.49
-12.24
-8.86
-5.3
-1.49
2.55
6.69
10.65
14.19
17.25
19.95
22.52
25.13
27.78
30.31
32.51
34.21
35.38
36.08
36.42
36.57
36.81
37.54
39.25
42.34
46.91
52.56
58.41
63.28
66.19
66.64
64.69
60.79
55.34
48.48
40.07
30
18.58
6.72
-4.25
-13.12
-19.3
-23.12
-25.61
-28.05
-31.37
-35.85
-41.07
-46.32
-50.95
-54.59
-57.24
-59.09
-60.23
-60.51
-59.53
-56.89
-52.42
-46.36
-39.3
-31.94
-24.87
-18.43
-12.75
-7.93
-4.23
-2.02
-1.59
-2.87
-5.26
-7.71
-9.09
-8.6
-6.11
-2.17
2.28
6.3
9.31
11.16
12.05
12.31
12.17
11.81
11.38
11.04
10.97
11.25
11.82
12.38
12.56
12
10.53
8.26
5.53
2.82
0.56
-1.03
-2.07
-2.97
-4.29
-6.39
-9.32
-12.72
-16.05
-18.83
-20.9
-22.4
-23.63
-24.92
-26.38
-27.96
-29.48
-30.72
-31.45
-31.45
-30.57
-28.71
-25.92
-22.35
-18.2
-13.61
-8.71
-3.62
1.44
6.17
10.23
13.38
15.59
17
17.87
18.45
18.79
18.88
18.69
18.3
17.92
17.84
18.21
18.96
19.87
20.62
20.99
20.93
20.56
19.95
19.14
18.04
16.6
14.86
13.02
11.29
9.79
8.44
6.98
5.18
2.97
0.56
-1.74
-3.65
-5.21
-6.79
-8.93
-12.15
-16.55
-21.8
-27.15
-31.75
-34.82
-35.94
-34.96
-32.07
-27.66
-22.32
-16.78
-11.79
-7.94
-5.5
-4.24
-3.63
-2.99
-1.86
-0.19
1.71
3.36
4.45
5.09
5.73
7
9.42
13.14
17.95
23.39
28.88
33.92
37.93
40.35
40.6
38.28
33.39
26.46
18.44
10.38
3.11
-3.03
-8.11
-12.44
-16.27
-19.57
-22.04
-23.18
-22.63
-20.27
-16.41
-11.74
-7.12
-3.43
-1.35
-1.3
-3.39
-7.46
-13.06
-19.47
-25.84
-31.32
-35.43
-38.18
-40.05
-41.71
-43.51
-45.26
-46.23
-45.5
-42.45
-37.09
-29.98
-21.9
-13.43
-4.71
4.53
14.51
25.07
35.53
44.84
52.07
56.81
59.32
60.3
60.49
60.26
59.47
57.77
54.9
50.96
46.48
42.13
38.35
35.19
32.3
29.2
25.59
21.49
17.27
13.4
10.26
7.95
6.28
4.82
3.16
1.11
-1.22
-3.43
-5.06
-5.9
-6.09
-6.08
-6.44
-7.53
-9.33
-11.47
-13.49
-15.11
-16.4
-17.67
-19.29
-21.4
-23.8
-26.1
-27.92
-29
-29.38
-29.26
-28.83
-28.19
-27.29
-25.93
-23.86
-20.86
-16.75
-11.47
-5.14
2.01
9.57
16.99
23.62
28.8
31.97
32.76
31.12
27.26
21.62
14.83
7.56
0.55
-5.41
-9.59
-11.41
-10.6
-7.38
-2.43
3.35
9.04
13.98
17.83
20.5
21.98
22.27
21.35
19.29
16.35
12.96
9.59
6.63
4.27
2.45
1.02
-0.15
-1.16
-2.02
-2.85
-3.82
-5.13
-6.97
-9.33
-12.09
-15.01
-17.92
-20.69
-23.32
-25.79
-28.05
-30
-31.54
-32.6
-33.21
-33.42
-33.24
-32.57
-31.14
-28.68
-25.03
-20.28
-14.77
-9.03
-3.56
1.34
5.55
9.04
11.72
13.27
13.31
11.63
8.42
4.33
0.23
-3.11
-5.41
-6.88
-8.1
-9.59
-11.63
-14.09
-16.65
-18.99
-21
-22.75
-24.5
-26.53
-28.96
-31.73
-34.49
-36.76
-38.06
-38.09
-36.92
-34.87
-32.41
-29.9
-27.38
-24.62
-21.28
-17.16
-12.28
-6.9
-1.35
4.17
9.71
15.56
22.15
29.85
38.83
48.86
59.39
69.59
78.61
85.79
90.77
93.57
94.4
93.58
91.24
87.29
81.37
73.01
61.81
47.72
31.18
13.11
-5.17
-22.26
-36.88
-48.1
-55.53
-59.47
-60.84
-61.13
-61.98
-64.76
-70
-77.2
-84.88
-91.2
-94.53
-94.04
-89.73
-82.27
-72.39
-60.62
-47.26
-32.62
-17.4
-2.8
9.61
18.48
23.15
23.97
22.17
19.43
17.19
16.22
16.45
17.17
17.49
16.74
14.76
11.83
8.55
5.59
3.65
3.44
5.57
10.31
17.21
25
31.8
35.8
35.99
32.7
27.55
22.71
20.01
20.23
22.93
26.86
30.64
33.29
34.39
33.88
31.84
28.31
23.43
17.66
11.89
7.27
4.9
5.36
8.6
14.1
21.21
29.45
38.47
47.78
56.4
62.74
64.99
61.65
52.28
37.83
20.42
2.79
-12.46
-23.55
-29.87
-31.89
-30.84
-28.2
-25.29
-23.07
-22.12
-22.77
-25.14
-29.12
-34.23
-39.54
-43.75
-45.65
-44.49
-40.21
-33.45
-25.12
-16.02
-6.62
2.84
12.09
20.56
27.38
31.63
32.74
30.74
26.26
20.36
14.27
9.1
5.74
4.71
6.16
9.68
14.32
18.81
21.82
22.41
20.34
16.03
10.4
4.45
-0.98
-5.35
-8.4
-9.92
-9.88
-8.45
-6.13
-3.75
-2.23
-2.23
-3.86
-6.6
-9.62
-12.13
-13.81
-14.89
-15.94
-17.47
-19.54
-21.71
-23.23
-23.47
-22.23
-19.83
-16.92
-14.05
-11.4
-8.65
-5.32
-1.12
3.78
8.74
13
16.04
17.82
18.78
19.48
20.35
21.43
22.47
23.12
23.14
22.55
21.63
20.76
20.3
20.47
21.23
22.34
23.39
24.01
23.9
23
21.37
19.12
16.34
13.06
9.34
5.31
1.23
-2.58
-5.79
-8.19
-9.7
-10.39
-10.45
-10.23
-10.22
-10.94
-12.82
-15.95
-20.03
-24.46
-28.55
-31.78
-33.97
-35.27
-35.94
-36.16
-35.92
-35.11
-33.57
-31.28
-28.37
-25.06
-21.47
-17.64
-13.4
-8.6
-3.19
2.63
8.46
13.76
18.1
21.31
23.54
25.16
26.58
28.05
29.61
31.06
32.18
32.9
33.31
33.68
34.21
34.98
35.79
36.29
36.12
35.1
33.34
31.15
28.86
26.64
24.34
21.7
18.44
14.56
10.32
6.12
2.27
-1.19
-4.42
-7.69
-11.15
-14.8
-18.47
-21.97
-25.15
-27.95
-30.36
-32.42
-34.16
-35.7
-37.17
-38.68
-40.19
-41.54
-42.48
-42.81
-42.42
-41.37
-39.76
-37.64
-34.98
-31.69
-27.77
-23.36
-18.72
-14.15
-9.81
-5.74
-1.88
1.79
5.17
8.04
10.27
11.87
13.13
14.44
16.11
18.14
20.21
21.8
22.47
22.06
20.74
18.95
17.17
15.74
14.76
14.1
13.51
12.73
11.57
9.96
7.98
5.75
3.47
1.28
-0.7
-2.44
-3.93
-5.24
-6.52
-7.93
-9.64
-11.75
-14.27
-17.14
-20.29
-23.65
-27.09
-30.37
-33.09
-34.81
-35.22
-34.27
-32.22
-29.58
-26.78
-24
-21.09
-17.66
-13.32
-7.94
-1.72
4.83
11.06
16.42
20.55
23.43
25.25
26.36
27.11
27.75
28.43
29.17
29.92
30.57
30.99
31.03
30.54
29.53
28.1
26.53
25.16
24.25
23.85
23.77
23.7
23.35
22.62
21.63
20.55
19.53
18.56
17.5
16.26
14.77
13.09
11.27
9.32
7.18
4.82
2.25
-0.43
-3.16
-5.98
-9.05
-12.53
-16.5
-20.88
-25.42
-29.88
-33.98
-37.54
-40.36
-42.22
-42.92
-42.35
-40.58
-37.86
-34.54
-30.96
-27.25
-23.35
-19.04
-14.14
-8.6
-2.66
3.27
8.77
13.52
17.38
20.37
22.52
23.88
24.47
24.37
23.82
23.14
22.66
22.54
22.7
22.85
22.67
21.96
20.73
19.19
17.63
16.27
15.24
14.49
13.82
12.97
11.75
10.13
8.28
6.43
4.82
3.53
2.47
1.36
-0.01
-1.77
-3.8
-5.9
-7.86
-9.62
-11.28
-13.08
-15.22
-17.82
-20.85
-24.18
-27.63
-31.03
-34.24
-37.12
-39.53
-41.31
-42.32
-42.42
-41.52
-39.57
-36.51
-32.38
-27.23
-21.21
-14.55
-7.58
-0.72
5.64
11.14
15.59
18.94
21.33
22.91
23.88
24.35
24.44
24.3
24.09
23.94
23.88
23.83
23.63
23.17
22.51
21.84
21.45
21.54
22.15
23.09
24.07
24.72
24.72
23.85
22.03
19.36
16.13
12.78
9.69
7.16
5.19
3.54
1.9
-0.01
-2.33
-5.01
-7.95
-11.03
-14.13
-17.13
-19.88
-22.25
-24.15
-25.61
-26.78
-27.9
-29.14
-30.57
-32.1
-33.51
-34.58
-35.09
-34.87
-33.86
-31.98
-29.23
-25.63
-21.32
-16.5
-11.52
-6.74
-2.44
1.25
4.37
7.04
9.36
11.31
12.77
13.66
14.08
14.35
14.82
15.76
17.13
18.69
20.09
21.12
21.74
22.07
22.19
22.1
21.67
20.76
19.29
17.3
14.98
12.49
10.07
7.91
6.15
4.84
3.82
2.85
1.57
-0.22
-2.54
-5.18
-7.82
-10.12
-11.89
-13.17
-14.16
-15.16
-16.42
-18.06
-19.93
-21.76
-23.19
-23.94
-23.98
-23.43
-22.5
-21.26
-19.58
-17.18
-13.78
-9.33
-4.02
1.68
7.3
12.42
16.84
20.45
23.26
25.29
26.66
27.51
28.01
28.3
28.42
28.28
27.74
26.78
25.51
24.2
23.13
22.49
22.21
22.07
21.75
20.98
19.71
17.99
16.02
13.95
11.9
9.91
7.99
6.16
4.46
2.88
1.38
-0.14
-1.82
-3.76
-6.01
-8.55
-11.26
-14.06
-16.87
-19.7
-22.59
-25.58
-28.65
-31.66
-34.41
-36.72
-38.47
-39.69
-40.53
-41.1
-41.44
-41.42
-40.82
-39.42
-37.07
-33.78
-29.61
-24.7
-19.22
-13.42
-7.64
-2.31
2.2
5.75
8.42
10.54
12.46
14.39
16.34
18.1
19.42
20.14
20.2
19.71
18.79
17.58
16.15
14.53
12.74
10.83
8.91
7.12
5.59
4.41
3.56
2.97
2.53
2.15
1.8
1.5
1.34
1.37
1.56
1.77
1.77
1.28
0.14
-1.67
-3.97
-6.54
-9.23
-11.99
-14.85
-17.82
-20.7
-23.16
-24.86
-25.61
-25.5
-24.77
-23.64
-22.12
-20.06
-17.16
-13.29
-8.49
-3.07
2.55
8
12.95
17.27
20.87
23.76
25.97
27.6
28.74
29.48
29.85
29.86
29.49
28.75
27.74
26.62
25.57
24.74
24.14
23.69
23.23
22.63
21.84
20.9
19.9
18.88
17.77
16.44
14.78
12.74
10.38
7.89
5.44
3.14
1.02
-0.98
-2.92
-4.86
-6.81
-8.79
-10.76
-12.72
-14.64
-16.51
-18.3
-20.04
-21.8
-23.65
-25.64
-27.71
-29.77
-31.63
-33.18
-34.3
-34.94
-35.06
-34.62
-33.6
-31.95
-29.63
-26.57
-22.67
-17.87
-12.2
-5.95
0.43
6.35
11.26
14.85
17.1
18.23
18.65
18.81
19.17
20.06
21.65
23.79
26.07
27.98
29.06
29.18
28.52
27.48
26.46
25.62
24.93
24.21
23.42
22.65
22.07
21.77
21.57
21.12
19.99
17.92
15
11.58
8.12
4.96
2.23
-0.11
-2.2
-4.14
-5.97
-7.79
-9.71
-11.92
-14.54
-17.52
-20.66
-23.7
-26.48
-28.99
-31.33
-33.59
-35.71
-37.46
-38.59
-38.94
-38.57
-37.72
-36.64
-35.39
-33.85
-31.66
-28.48
-24.09
-18.55
-12.16
-5.43
1.08
6.86
11.61
15.26
17.93
19.88
21.45
22.88
24.29
25.64
26.83
27.74
28.32
28.66
28.94
29.33
29.95
30.71
31.46
32.03
32.35
32.53
32.82
33.44
34.49
35.84
37.21
38.29
38.94
39.2
39.32
39.67
40.58
42.32
45
48.61
52.98
57.81
62.7
67.31
71.5
75.49
79.8
85.1
91.9
100.28
109.87
120.01
130.12
139.86
149.32
158.86
168.94
180.11
192.8
207.23
223.22
240
256.21
270.34
281.2
288.46
292.52
294.1
293.44
290.01
282.61
270.15
252.34
229.95
204.53
177.82
151.3
126.03
102.83
82.4
65.19
51.1
39.19
27.77
14.91
-0.89
-20.1
-42.04
-65.24
-88.08
-109.4
-128.95
-147.36
-165.89
-185.95
-208.76
-235.03
-264.74
-296.92
-329.46
-359.38
-383.4
-399.1
-405.91
-405.35
-400.5
-394.5
-389.08
-383.69
-375.87
-362.72
-342.62
-316.39
-287.22
-259.39
-236.4
-219.55
-207.68
-197.94
-187.33
-174.12
-158.37
-141.5
-125.09
-109.89
-95.3
-79.86
-62.1
-41.36
-17.97
7.05
32.72
58.56
84.74
111.58
138.92
165.65
189.81
209.19
222.21
228.51
228.98
225.01
217.79
207.74
194.7
178.54
159.83
140.07
121.23
104.96
91.86
81.29
71.87
62.35
52.27
42.19
33.38
27.03
23.48
21.9
20.42
16.71
8.73
-4.72
-23.9
-48.24
-76.83
-108.81
-143.6
-181.15
-222.09
-267.81
-319.89
-379
-443.27
-507.36
-562.81
-600.31
-612.76
-597.89
-559.13
-504.22
-442.57
-382.37
-328.89
-284.14
-247.7
-218.01
-193.43
-172.98
-156.5
-144.41
-137
-133.63
-132.27
-129.77
-123.01
-109.98
-90.32
-65.08
-35.92
-4.53
27.32
57.48
83.25
101.85
111.41
111.89
105.17
94.37
82.85
73.27
67.35
66.04
69.75
78.55
92.1
109.78
130.79
154.34
179.63
205.44
229.85
250.23
263.7
268.07
262.64
248.57
228.47
205.59
182.95
162.7
145.94
132.93
123.45
117.14
113.6
112.27
112.23
112.07
110.1
104.77
95.5
83.08
69.65
58.05
50.84
49.38
53.39
61.19
70.44
79.13
86.23
91.91
97.19
103.34
111.13
120.48
130.48
139.81
147.37
152.78
156.61
160.3
165.9
175.56
190.79
211.59
235.77
259
275.81
281.42
273.55
253.4
225.03
193.69
163.62
136.63
112.02
87.62
61.04
30.57
-4.52
-43.97
-86.46
-129.46
-169.35
-202.21
-225.09
-237.34
-240.92
-239.73
-238.06
-239
-243.66
-251.46
-261.16
-271.98
-283.99
-297.92
-314.2
-332.03
-349.07
-361.77
-366.49
-360.76
-344.23
-318.69
-287.29
-253.3
-218.95
-185.06
-151.28
-116.77
-80.8
-43.08
-3.84
35.97
74.63
109.73
138.57
158.97
169.97
172.2
167.55
158.49
147.32
135.8
125.17
116.36
110.02
106.38
105.02
104.86
104.53
102.88
99.49
94.71
89.27
83.92
78.96
74.2
69.21
63.69
57.68
51.64
46.11
41.47
37.65
34.17
30.4
25.87
20.54
14.88
9.63
5.49
2.72
1.04
-0.34
-2.29
-5.38
-9.56
-14.18
-18.25
-20.81
-21.31
-19.73
-16.44
-12.06
-7.15
-2.12
2.88
7.88
13.01
18.32
23.7
28.8
33.18
36.49
38.64
39.83
40.41
40.69
40.8
40.68
40.26
39.63
39.03
38.79
39.1
39.87
40.67
41.02
40.55
39.22
37.28
35.18
33.29
31.79
30.58
29.45
28.21
26.83
25.4
24.08
22.89
21.7
20.29
18.45
16.15
13.53
10.89
8.51
6.56
5.05
3.82
2.66
1.37
-0.17
-1.92
-3.71
-5.27
-6.26
-6.41
-5.49
-3.44
-0.35
3.59
8.11
13.01
18.14
23.5
29.17
35.21
41.6
48.16
54.56
60.43
65.55
69.96
74
78.22
83.09
88.67
94.49
99.44
102.15
101.52
97.13
89.53
79.95
69.82
60.16
51.37
43.24
35.46
27.96
21.08
15.39
11.32
8.82
7.31
5.83
3.29
-1.29
-8.54
-18.67
-31.38
-45.85
-60.91
-75.28
-87.85
-97.84
-104.85
-108.85
-109.97
-108.4
-104.42
-98.41
-90.98
-82.92
-75.07
-68.26
-63.02
-59.59
-57.85
-57.41
-57.69
-57.95
-57.42
-55.37
-51.29
-45.04
-37.14
-28.66
-21.06
-15.63
-13.13
-13.44
-15.71
-18.68
-21.16
-22.36
-21.94
-19.84
-16.05
-10.47
-2.99
6.25
16.65
27.1
36.28
43.04
46.95
48.4
48.54
48.81
50.37
53.76
58.73
64.61
70.69
76.7
82.89
89.87
98.26
108.31
119.76
132.02
144.37
156.41
168.34
180.79
194.61
210.53
228.83
249.21
270.82
292.02
310.71
324.72
332.22
332.34
325.42
312.96
297.25
280.61
264.43
249.06
233.96
218.05
200.23
179.84
156.72
131.37
104.63
76.58
47.14
16.2
-16.32
-50.5
-85.97
-122.35
-158.83
-194.32
-229.49
-265.09
-301.54
-338.96
-377.77
-418.71
-463.93
-514.9
-570.9
-630.24
-687.04
-732.2
-756.48
-754.62
-726.86
-680.14
-623.58
-564.94
-511.91
-467.93
-432.66
-403.94
-379.9
-358.92
-341.43
-327.01
-295.11
-236.65
-156.27
-69.61
7.19
59.22
91.4
110.46
122.66
133.48
143.84
153.65
163.35
173.92
185.65
198.38
209.3
216.14
218.4
214.98
206.96
197.18
188.91
184.06
183.19
184.19
185.14
185.4
183.96
180.82
176.8
173.05
170.41
169.79
171.15
174.68
180.84
189.13
198.81
208.94
218.44
225.78
229.24
226.51
215.79
196.45
169.09
135.86
100.04
65.18
34.37
9.84
-7.32
-16.88
-19.56
-17.19
-12.79
-10.13
-12.85
-23.41
-42.16
-67.2
-94.76
-120.08
-138.53
-146.57
-142.49
-126.75
-101.99
-72.5
-43.27
-18.83
-2.09
6.2
7.44
4.49
0.72
-1.17
0.1
4.1
9.09
12.81
13.6
11.14
6.6
2.19
0.22
2.14
8.08
16.93
26.95
36.46
44.45
50.65
55.26
58.57
60.71
61.54
60.84
58.55
54.9
50.32
45.26
39.95
34.33
28.13
21.05
12.95
3.99
-5.39
-14.55
-22.88
-29.98
-35.77
-40.5
-44.58
-48.33
-51.78
-54.69
-56.62
-57.26
-56.57
-54.79
-52.29
-49.32
-45.91
-41.9
-37.11
-31.57
-25.56
-19.58
-14.12
-9.53
-5.89
-3.04
-0.64
1.64
4.06
6.7
9.51
12.32
14.92
17.12
18.8
19.91
20.47
20.56
20.28
19.71
18.95
18.05
17.05
15.96
14.75
13.35
11.69
9.73
7.5
5.11
2.71
0.49
-1.36
-2.75
-3.63
-4.06
-4.18
-4.24
-4.49
-5.13
-6.21
-7.59
-9.04
-10.34
-11.37
-12.17
-12.79
-13.18
-13.21
-12.62
-11.2
-8.89
-5.85
-2.39
1.16
4.6
7.82
10.84
13.7
16.4
18.87
21.06
22.9
24.34
25.41
26.09
26.37
26.21
25.62
24.71
23.68
22.79
22.18
21.83
21.54
21.08
20.28
19.18
17.98
16.88
15.97
15.12
14.05
12.54
10.47
8
5.45
3.22
1.52
0.38
-0.4
-1.11
-2
-3.2
-4.71
-6.45
-8.35
-10.39
-12.58
-14.89
-17.22
-19.34
-20.96
-21.84
-21.84
-20.94
-19.26
-16.97
-14.25
-11.25
-8.03
-4.65
-1.14
2.39
5.76
8.77
11.26
13.24
14.83
16.22
17.52
18.76
19.82
20.56
20.95
21.07
21.07
21.14
21.36
21.67
21.96
22.05
21.83
21.27
20.42
19.36
18.15
16.78
15.17
13.25
10.89
8.07
4.82
1.23
-2.53
-6.25
-9.72
-12.75
-15.22
-17.15
-18.67
-20.01
-21.38
-22.92
-24.64
-26.4
-28.04
-29.38
-30.33
-30.94
-31.26
-31.38
-31.25
-30.75
-29.65
-27.74
-24.87
-21.08
-16.53
-11.51
-6.35
-1.35
3.26
7.36
10.96
14.14
17.02
19.72
22.29
24.69
26.81
28.57
29.92
30.96
31.82
32.69
33.68
34.75
35.69
36.2
35.95
34.74
32.52
29.38
25.53
21.2
16.62
11.97
7.34
2.79
-1.66
-6
-10.18
-14.07
-17.59
-20.64
-23.22
-25.38
-27.2
-28.7
-29.84
-30.52
-30.71
-30.55
-30.32
-30.36
-31
-32.36
-34.3
-36.47
-38.41
-39.7
-40.11
-39.58
-38.24
-36.29
-33.94
-31.35
-28.6
-25.71
-22.59
-19.13
-15.23
-10.88
-6.27
-1.7
2.38
5.6
7.71
8.7
8.7
7.91
6.58
4.99
3.47
2.32
1.76
1.76
2.01
2.04
1.35
-0.28
-2.79
-5.79
-8.73
-11.07
-12.37
-12.38
-11.08
-8.7
-5.69
-2.63
-0.14
1.35
1.66
0.94
-0.43
-1.94
-3.14
-3.68
-3.4
-2.35
-0.74
1.07
2.69
3.79
4.23
4.08
3.55
2.9
2.22
1.47
0.51
-0.67
-1.88
-2.64
-2.45
-0.98
1.7
5.15
8.69
11.75
14.06
15.73
17.06
18.37
19.82
21.39
22.85
24.04
24.83
25.27
25.57
25.96
26.62
27.54
28.51
29.19
29.28
28.6
27.25
25.52
23.8
22.39
21.37
20.62
19.86
18.81
17.33
15.41
13.2
10.85
8.47
6.07
3.54
0.74
-2.44
-6.01
-9.8
-13.47
-16.67
-19.2
-21.13
-22.83
-24.73
-27.17
-30.12
-33.19
-35.8
-37.38
-37.62
-36.53
-34.28
-31.1
-27.14
-22.48
-17.21
-11.59
-5.99
-0.84
3.54
7.07
9.92
12.45
15
17.75
20.58
23.17
25.15
26.3
26.63
26.41
25.94
25.51
25.17
24.87
24.48
23.86
22.91
21.54
19.68
17.22
14.16
10.63
6.9
3.35
0.3
-2.06
-3.73
-4.85
-5.61
-6.22
-6.79
-7.41
-8.1
-8.87
-9.72
-10.68
-11.78
-13.05
-14.5
-16.07
-17.61
-18.94
-19.82
-20.06
-19.54
-18.21
-16.09
-13.25
-9.79
-5.83
-1.58
2.74
6.86
10.55
13.64
16.09
17.94
19.26
20.14
20.61
20.65
20.28
19.56
18.6
17.55
16.51
15.45
14.24
12.7
10.69
8.24
5.55
2.9
0.52
-1.47
-3.15
-4.59
-5.84
-6.82
-7.35
-7.34
-6.85
-6.07
-5.32
-4.85
-4.77
-4.99
-5.37
-5.7
-5.9
-6.02
-6.27
-6.93
-8.3
-10.52
-13.57
-17.17
-20.89
-24.25
-26.88
-28.58
-29.28
-29.02
-27.85
-25.83
-23.03
-19.55
-15.53
-11.13
-6.54
-1.94
2.45
6.4
9.65
12.01
13.39
13.83
13.56
12.9
12.19
11.71
11.67
12.12
12.98
14.08
15.14
15.91
16.17
15.83
14.93
13.64
12.17
10.69
9.23
7.74
6.15
4.44
2.73
1.19
-0.01
-0.85
-1.41
-1.86
-2.36
-2.99
-3.84
-4.99
-6.53
-8.47
-10.69
-12.95
-15.06
-17.02
-19.14
-21.85
-25.38
-29.5
-33.46
-36.28
-37.18
-35.94
-33
-29.12
-25.08
-21.29
-17.75
-14.19
-10.36
-6.22
-1.96
2.14
5.84
9
11.61
13.72
15.36
16.48
17.05
17.02
16.42
15.37
14.06
12.69
11.46
10.46
9.75
9.31
9.08
9.02
9.04
9.01
8.68
7.79
6.09
3.52
0.27
-3.26
-6.52
-9.06
-10.59
-11.1
-10.82
-10.12
-9.41
-9.02
-9.1
-9.6
-10.36
-11.12
-11.69
-11.98
-12.06
-12.13
-12.34
-12.75
-13.22
-13.39
-12.81
-11.01
-7.74
-3.03
2.7
8.78
14.45
19.05
22.21
23.9
24.43
24.24
23.83
23.53
23.42
23.22
22.49
20.76
17.85
14.03
9.96
6.46
4.21
3.38
3.63
4.27
4.62
4.28
3.3
2.05
0.96
0.31
0.11
0.13
0.09
-0.22
-0.91
-1.94
-3.19
-4.58
-5.99
-7.3
-8.38
-9.12
-9.53
-9.72
-9.98
-10.64
-11.95
-14.05
-16.79
-19.82
-22.6
-24.64
-25.55
-25.26
-23.93
-21.87
-19.4
-16.68
-13.73
-10.5
-7.02
-3.44
-0.06
2.83
5.11
6.86
8.31
9.72
11.25
12.91
14.63
16.34
18.04
19.8
21.62
23.35
24.59
24.84
23.68
21.07
17.35
13.29
9.81
7.66
7.16
8.11
9.8
11.35
11.91
10.99
8.56
5.05
1.21
-2.19
-4.6
-5.92
-6.51
-7.02
-8.08
-10.04
-12.87
-16.16
-19.45
-22.35
-24.67
-26.43
-27.62
-28.16
-27.87
-26.53
-24.02
-20.31
-15.56
-10
-3.93
2.17
7.78
12.35
15.54
17.34
18.18
18.71
19.55
21.03
23.03
25.12
26.75
27.56
27.43
26.46
24.87
22.88
20.59
18.12
15.57
13.03
10.54
8.03
5.34
2.38
-0.83
-4.09
-7.09
-9.57
-11.42
-12.75
-13.74
-14.54
-15.21
-15.64
-15.77
-15.61
-15.31
-15.14
-15.36
-16.1
-17.31
-18.81
-20.3
-21.47
-22.04
-21.84
-20.77
-18.8
-15.94
-12.26
-7.89
-3.05
1.95
6.7
10.78
13.8
15.56
16.01
15.37
14.02
12.44
11.09
10.25
10
10.17
10.48
10.66
10.6
10.34
10
9.7
9.47
9.3
9.13
8.92
8.62
8.14
7.33
5.98
4
1.5
-1.1
-3.22
-4.33
-4.24
-3.22
-1.93
-1.18
-1.59
-3.33
-6.14
-9.44
-12.63
-15.34
-17.5
-19.25
-20.82
-22.34
-23.77
-24.87
-25.32
-24.85
-23.28
-20.6
-16.96
-12.65
-8.02
-3.47
0.61
3.96
6.51
8.38
9.88
11.37
13.12
15.1
17.03
18.47
18.98
18.49
17.27
15.94
15.2
15.47
16.68
18.34
19.71
20.11
19.24
17.21
14.45
11.43
8.44
5.56
2.71
-0.19
-3.07
-5.77
-8.09
-9.93
-11.37
-12.61
-13.89
-15.31
-16.83
-18.26
-19.4
-20.16
-20.61
-20.88
-21.07
-21.06
-20.52
-19.1
-16.59
-13.09
-9.02
-4.91
-1.14
2.25
5.51
9.02
13.02
17.41
21.72
25.35
27.7
28.5
27.83
26.06
23.67
21.04
18.39
15.78
13.25
10.92
8.99
7.64
6.9
6.63
6.51
6.25
5.73
5.02
4.3
3.67
3.03
2.12
0.67
-1.45
-4.07
-6.8
-9.19
-10.94
-12.06
-12.82
-13.63
-14.76
-16.28
-18
-19.61
-20.81
-21.45
-21.46
-20.8
-19.38
-17.06
-13.71
-9.39
-4.35
0.98
6.11
10.62
14.26
16.96
18.78
19.84
20.3
20.33
20.14
19.93
19.75
19.51
18.99
17.91
16.09
13.61
10.72
7.79
5.16
2.95
1.14
-0.42
-1.91
-3.38
-4.79
-5.97
-6.74
-6.9
-6.38
-5.32
-4
-2.79
-2.02
-1.84
-2.18
-2.91
-3.89
-5.08
-6.47
-8
-9.5
-10.72
-11.45
-11.67
-11.55
-11.37
-11.31
-11.32
-11.06
-10.13
-8.27
-5.56
-2.44
0.45
2.5
3.44
3.41
2.87
2.28
1.96
1.9
1.83
1.44
0.55
-0.8
-2.43
-4.13
-5.76
-7.22
-8.45
-9.37
-9.88
-9.99
-9.87
-9.85
-10.33
-11.6
-13.7
-16.31
-18.87
-20.71
-21.33
-20.55
-18.57
-15.91
-13.15
-10.82
-9.27
-8.64
-8.89
-9.86
-11.29
-12.85
-14.21
-15.12
-15.48
-15.32
-14.8
-14.09
-13.37
-12.68
-11.98
-11.1
-9.83
-7.99
-5.51
-2.53
0.65
3.71
6.41
8.7
10.66
12.39
13.89
15.05
15.74
15.94
15.8
15.54
15.36
15.27
15.16
14.81
14.09
13.03
11.84
10.79
10.08
9.74
9.6
9.35
8.72
7.57
6.01
4.32
2.8
1.63
0.81
0.19
-0.47
-1.36
-2.58
-4.21
-6.26
-8.69
-11.34
-13.86
-15.8
-16.68
-16.19
-14.26
-11.07
-6.91
-2.17
2.78
7.55
11.77
15.16
17.66
19.42
20.8
22.14
23.59
25.01
26.04
26.25
25.34
23.35
20.6
17.64
15.04
13.22
12.35
12.23
12.37
12.13
10.9
8.29
4.27
-0.8
-6.32
-11.57
-15.99
-19.28
-21.55
-23.17
-24.68
-26.51
-28.88
-31.67
-34.58
-37.18
-39.06
-39.91
-39.54
-37.86
-34.89
-30.75
-25.7
-20.03
-14.02
-7.9
-1.81
4.16
9.8
14.86
19.07
22.26
24.52
26.13
27.46
28.8
30.24
31.65
32.78
33.36
33.17
32.16
30.37
27.99
25.28
22.53
19.95
17.63
15.44
13.17
10.6
7.7
4.61
1.68
-0.79
-2.68
-4.12
-5.44
-7.05
-9.19
-11.9
-14.96
-18.01
-20.7
-22.76
-24.08
-24.62
-24.31
-23.02
-20.57
-16.85
-11.87
-5.83
0.95
8.09
15.18
21.84
27.73
32.66
36.57
39.59
41.94
43.82
45.33
46.41
46.95
46.83
46.03
44.6
42.63
40.21
37.45
34.47
31.44
28.55
25.77
22.88
19.42
14.95
9.26
2.58
-4.44
-10.95
-16.28
-20.2
-22.97
-25.27
-27.77
-30.9
-34.72
-38.9
-42.97
-46.46
-49.07
-50.72
-51.46
-51.48
-50.96
-49.98
-48.48
-46.18
-42.79
-38.11
-32.3
-25.93
-19.87
-14.98
-11.81
-10.36
-10.15
-10.5
-10.77
-10.7
-10.36
-10.01
-9.84
-9.86
-9.86
-9.61
-8.95
-7.9
-6.63
-5.27
-3.98
-2.87
-2.11
-1.95
-2.59
-4.09
-6.21
-8.5
-10.38
-11.43
-11.45
-10.58
-9.13
-7.5
-6.1
-5.27
-5.26
-6.11
-7.69
-9.62
-11.45
-12.79
-13.5
-13.74
-13.86
-14.27
-15.17
-16.53
-18.01
-19.14
-19.46
-18.6
-16.41
-12.95
-8.5
-3.45
1.71
6.55
10.78
14.35
17.35
20
22.49
24.87
27.03
28.73
29.76
30.02
29.58
28.64
27.44
26.18
24.88
23.47
21.79
19.74
17.31
14.65
12.03
9.69
7.78
6.37
5.4
4.78
4.44
4.3
4.32
4.36
4.18
3.49
2.03
-0.34
-3.52
-7.27
-11.18
-14.84
-17.88
-20.07
-21.33
-21.65
-21.15
-19.95
-18.15
-15.77
-12.76
-9.07
-4.73
0.03
4.81
9.07
12.4
14.61
15.87
16.6
17.26
18.12
19.15
20.02
20.36
19.93
18.82
17.33
15.85
14.6
13.62
12.74
11.76
10.53
9.03
7.31
5.4
3.33
1.12
-1.17
-3.43
-5.54
-7.45
-9.23
-11
-12.88
-14.91
-17.09
-19.39
-21.87
-24.66
-27.77
-31.07
-34.13
-36.32
-36.98
-35.64
-32.18
-26.79
-19.93
-12.15
-3.92
4.38
12.47
20.15
27.21
33.38
38.42
42.11
44.38
45.31
45.17
44.3
43.01
41.54
39.98
38.28
36.36
34.11
31.49
28.47
25.1
21.49
17.78
14.18
10.86
7.9
5.27
2.83
0.37
-2.23
-4.98
-7.72
-10.26
-12.45
-14.24
-15.68
-16.94
-18.19
-19.53
-20.94
-22.27
-23.3
-23.84
-23.84
-23.49
-23.12
-23.04
-23.33
-23.76
-23.83
-23.01
-20.96
-17.72
-13.59
-9.03
-4.45
-0.22
3.42
6.26
8.19
9.27
9.7
9.79
9.8
9.82
9.73
9.3
8.41
7.11
5.68
4.43
3.6
3.26
3.29
3.55
3.9
4.29
4.7
5.12
5.49
5.71
5.69
5.36
4.68
3.62
2.21
0.5
-1.46
-3.61
-5.9
-8.38
-11.05
-13.89
-16.78
-19.53
-21.93
-23.89
-25.41
-26.5
-27.07
-26.88
-25.56
-22.77
-18.39
-12.66
-6.11
0.51
6.48
11.18
14.37
16.1
16.74
16.72
16.44
16.07
15.58
14.87
13.93
12.91
12.06
11.55
11.34
11.15
10.65
9.63
8.17
6.57
5.19
4.29
3.87
3.74
3.61
3.25
2.62
1.77
0.87
0
-0.85
-1.76
-2.83
-4.11
-5.53
-7.07
-8.73
-10.55
-12.62
-14.92
-17.28
-19.4
-20.93
-21.65
-21.47
-20.49
-18.88
-16.8
-14.31
-11.39
-7.93
-3.9
0.62
5.36
9.87
13.68
16.37
17.83
18.21
17.95
17.49
17.19
17.14
17.23
17.23
16.94
16.25
15.21
13.98
12.74
11.72
11.01
10.6
10.34
9.97
9.21
7.84
5.79
3.16
0.25
-2.6
-5.04
-6.81
-7.8
-8.09
-7.96
-7.81
-8.08
-9.1
-10.97
-13.59
-16.67
-19.89
-22.95
-25.64
-27.75
-29.01
-29.17
-28
-25.49
-21.85
-17.51
-12.95
-8.53
-4.39
-0.5
3.23
6.82
10.18
13.12
15.48
17.19
18.31
19.07
19.73
20.53
21.54
22.66
23.62
24.11
23.89
22.94
21.44
19.68
17.95
16.45
15.18
14.02
12.83
11.49
9.94
8.18
6.22
4.07
1.75
-0.73
-3.31
-5.89
-8.41
-10.78
-13.02
-15.18
-17.35
-19.59
-21.94
-24.34
-26.69
-28.82
-30.54
-31.61
-31.83
-31.07
-29.32
-26.68
-23.32
-19.41
-15.09
-10.43
-5.56
-0.65
4.08
8.39
12.09
15.09
17.4
19.09
20.28
21.05
21.52
21.73
21.72
21.49
21.03
20.36
19.49
18.5
17.41
16.24
14.95
13.54
12.03
10.52
9.12
7.87
6.72
5.51
4.09
2.44
0.66
-1.06
-2.57
-3.85
-5.04
-6.32
-7.81
-9.52
-11.33
-13.08
-14.66
-16.05
-17.27
-18.36
-19.26
-19.88
-20.04
-19.59
-18.4
-16.43
-13.69
-10.3
-6.46
-2.45
1.47
4.99
7.9
10.1
11.58
12.52
13.09
13.48
13.75
13.87
13.75
13.39
12.9
12.45
12.2
12.14
12.14
11.95
11.39
10.46
9.3
8.15
7.16
6.34
5.48
4.36
2.78
0.73
-1.55
-3.67
-5.27
-6.11
-6.28
-6.11
-6.06
-6.51
-7.57
-9.06
-10.65
-12.06
-13.17
-14.02
-14.76
-15.43
-15.97
-16.24
-16.12
-15.49
-14.2
-12
-8.55
-3.5
3.36
11.92
21.68
31.79
41.25
49.08
54.71
58.13
59.87
60.83
61.84
63.18
64.5
65.11
64.39
62.37
59.81
57.87
57.5
58.85
61.08
62.69
62.17
58.7
52.48
44.59
36.52
29.51
24.17
20.5
18.14
16.71
15.92
15.36
14.3
11.63
6.11
-3.09
-15.82
-30.77
-45.87
-58.97
-68.66
-74.68
-77.81
-79.31
-80.18
-80.79
-80.82
-79.64
-76.82
-72.46
-67.14
-61.6
-56.35
-51.44
-46.62
-41.7
-36.78
-32.3
-28.74
-26.33
-24.75
-23.3
-21.19
-17.96
-13.69
-9
-4.82
-1.93
-0.68
-0.81
-1.56
-1.97
-1.32
0.64
3.64
7.03
10.19
12.82
15.01
17.07
19.26
21.53
23.57
24.92
25.31
24.81
23.87
23.07
22.88
23.35
24.06
24.27
23.2
20.39
15.86
10.1
3.86
-2.07
-7.12
-10.94
-13.47
-14.87
-15.53
-16.01
-16.9
-18.63
-21.25
-24.38
-27.33
-29.33
-29.96
-29.3
-27.98
-26.89
-26.83
-28.17
-30.73
-33.9
-36.86
-38.97
-39.94
-39.95
-39.42
-38.81
-38.37
-38.09
-37.77
-37.29
-36.75
-36.59
-37.35
-39.5
-43.06
-47.48
-51.78
-54.83
-55.81
-54.44
-51.07
-46.39
-41.12
-35.79
-30.65
-25.83
-21.46
-17.77
-15.01
-13.25
-12.35
-11.9
-11.38
-10.34
-8.49
-5.84
-2.61
0.75
3.67
5.57
6.08
5.25
3.53
1.7
0.51
0.32
0.99
2.07
3.11
4.02
5.11
6.93
9.96
14.35
19.91
26.18
32.63
38.72
44.03
48.24
51.32
53.59
55.82
58.91
63.57
69.85
77.09
84.15
89.95
93.93
96.15
97.1
97.26
96.82
95.56
93.04
88.87
82.89
75.03
65.24
53.32
39.05
22.35
3.54
-16.56
-36.76
-55.83
-72.7
-86.69
-97.56
-105.39
-110.52
-113.45
-114.76
-115.04
-114.76
-114.03
-112.48
-109.28
-103.46
-94.31
-81.93
-67.31
-52.13
-38.23
-26.92
-18.6
-12.73
-8.28
-4.32
-0.42
3.28
6.41
8.85
10.93
13.32
16.57
20.68
24.97
28.37
30.02
29.77
28.27
26.68
26.05
26.82
28.74
31.05
32.97
33.99
34.01
33.33
32.41
31.7
31.42
31.51
31.61
31.23
29.91
27.49
24.11
20.19
16.2
12.47
9.13
6.2
3.63
1.49
-0.1
-1.05
-1.38
-1.22
-0.88
-0.69
-0.96
-1.89
-3.41
-5.26
-6.99
-8.15
-8.5
-8.1
-7.26
-6.37
-5.73
-5.46
-5.5
-5.77
-6.22
-6.88
-7.74
-8.71
-9.63
-10.35
-10.82
-11.19
-11.68
-12.47
-13.57
-14.71
-15.48
-15.53
-14.7
-13.11
-11.06
-8.86
-6.73
-4.72
-2.8
-0.97
0.73
2.17
3.26
3.97
4.36
4.57
4.73
4.97
5.35
5.86
6.43
6.93
7.27
7.39
7.31
7.11
6.87
6.61
6.31
5.91
5.41
4.81
4.08
3.13
1.9
0.36
-1.39
-3.12
-4.54
-5.5
-6.05
-6.45
-7.08
-8.26
-10.14
-12.64
-15.48
-18.28
-20.65
-22.26
-22.94
-22.6
-21.31
-19.21
-16.48
-13.38
-10.18
-7.16
-4.51
-2.3
-0.45
1.23
2.95
4.83
6.86
8.93
10.89
12.64
14.12
15.28
16.12
16.63
16.85
16.93
17.02
17.24
17.57
17.87
17.93
17.58
16.81
15.73
14.53
13.34
12.22
11.14
10.06
8.97
7.92
6.95
6.03
5.06
3.9
2.47
0.74
-1.2
-3.22
-5.2
-7.05
-8.68
-9.96
-10.69
-10.67
-9.74
-7.9
-5.3
-2.21
1.05
4.23
7.2
9.94
12.49
14.83
16.9
18.62
19.93
20.8
21.34
21.65
21.84
22.01
22.16
22.29
22.38
22.45
22.54
22.63
22.69
22.63
22.31
21.62
20.53
19.12
17.52
15.91
14.36
12.84
11.18
9.2
6.77
3.94
0.89
-2.16
-4.99
-7.57
-9.94
-12.21
-14.42
-16.54
-18.47
-20.05
-21.2
-21.86
-21.95
-21.38
-20.04
-17.8
-14.63
-10.6
-5.92
-0.89
4.16
8.89
13.02
16.4
18.96
20.75
21.91
22.58
22.94
23.18
23.43
23.8
24.31
24.85
25.22
25.23
24.75
23.83
22.62
21.33
20.1
18.91
17.63
16.1
14.21
12.02
9.69
7.43
5.39
3.64
2.16
0.91
-0.2
-1.25
-2.34
-3.55
-4.93
-6.45
-8.01
-9.56
-11.06
-12.58
-14.22
-16.06
-18.06
-20.04
-21.73
-22.81
-23.04
-22.29
-20.58
-18.07
-15.01
-11.6
-7.99
-4.18
-0.07
4.39
9.14
13.98
18.54
22.52
25.7
28.03
29.57
30.41
30.65
30.38
29.71
28.74
27.58
26.3
24.9
23.38
21.69
19.81
17.71
15.41
12.89
10.17
7.27
4.27
1.36
-1.3
-3.55
-5.43
-7.06
-8.66
-10.38
-12.24
-14.08
-15.67
-16.86
-17.67
-18.28
-18.9
-19.73
-20.79
-22.02
-23.35
-24.71
-26.14
-27.66
-29.31
-31.05
-32.82
-34.5
-35.94
-36.94
-37.33
-36.93
-35.65
-33.45
-30.32
-26.32
-21.5
-15.93
-9.76
-3.19
3.49
9.95
15.87
20.96
25.03
28.03
29.97
31.01
31.38
31.34
31.12
30.9
30.77
30.7
30.57
30.24
29.63
28.71
27.56
26.25
24.78
23.13
21.24
19.12
16.83
14.52
12.29
10.17
8.06
5.84
3.43
0.86
-1.73
-4.15
-6.25
-8
-9.49
-10.85
-12.25
-13.77
-15.45
-17.23
-19.02
-20.72
-22.23
-23.49
-24.5
-25.29
-25.92
-26.48
-27.04
-27.67
-28.36
-29.04
-29.61
-29.91
-29.75
-28.95
-27.34
-24.82
-21.32
-16.86
-11.5
-5.39
1.22
7.98
14.45
20.18
24.83
28.26
30.61
32.17
33.34
34.37
35.37
36.22
36.7
36.64
36.02
34.96
33.67
32.3
30.91
29.46
27.88
26.18
24.43
22.86
21.63
20.9
20.68
20.88
21.32
21.75
21.91
21.54
20.46
18.6
16.06
13.13
10.13
7.38
5.05
3.17
1.65
0.46
-0.36
-0.67
-0.33
0.67
2.13
3.65
4.78
5.16
4.6
3.12
0.84
-2.13
-5.63
-9.46
-13.31
-16.72
-19.21
-20.38
-20.12
-18.56
-16.05
-12.99
-9.73
-6.51
-3.49
-0.81
1.37
2.96
3.93
4.4
4.57
4.71
5.04
5.72
6.76
8.09
9.55
10.95
12.13
12.97
13.44
13.49
13.09
12.15
10.58
8.38
5.68
2.74
-0.17
-2.84
-5.26
-7.58
-10.02
-12.76
-15.84
-19.2
-22.7
-26.23
-29.71
-33.09
-36.29
-39.23
-41.81
-43.99
-45.73
-47.06
-47.96
-48.37
-48.23
-47.42
-45.87
-43.52
-40.36
-36.39
-31.57
-25.94
-19.56
-12.58
-5.12
2.73
11.03
19.88
29.35
39.36
49.65
59.87
69.64
78.76
87.13
94.69
101.29
106.55
109.96
110.92
108.95
103.83
95.7
85.12
72.89
59.94
47.04
34.63
22.83
11.51
0.57
-9.86
-19.41
-27.6
-34.09
-38.81
-41.99
-44.03
-45.34
-46.27
-47.11
-48.18
-49.87
-52.58
-56.55
-61.78
-67.95
-74.49
-80.81
-86.46
-91.21
-95.04
-97.99
-99.99
-100.87
-100.42
-98.61
-95.73
-92.33
-89.13
-86.66
-85.05
-83.96
-82.75
-80.78
-77.64
-73.31
-68.03
-62.1
-55.69
-48.79
-41.32
-33.32
-25.11
-17.2
-10.15
-4.23
0.66
4.91
8.99
13.15
17.27
21.03
24.08
26.32
27.94
29.34
30.86
32.64
34.61
36.55
38.28
39.74
40.94
41.94
42.73
43.25
43.4
43.15
42.54
41.71
40.83
39.96
39.04
37.93
36.43
34.45
32.02
29.3
26.46
23.62
20.77
17.85
14.82
11.71
8.7
6.01
3.79
2.13
0.99
0.28
-0.1
-0.21
-0.12
0.1
0.3
0.27
-0.16
-1.03
-2.18
-3.23
-3.73
-3.3
-1.83
0.54
3.53
6.86
10.38
14.07
18.01
22.22
26.57
30.8
34.54
37.42
39.2
39.78
39.3
38.03
36.31
34.4
32.45
30.48
28.36
26.03
23.41
20.52
17.4
14.04
10.44
6.67
2.88
-0.69
-3.77
-6.24
-8.13
-9.64
-10.99
-12.35
-13.74
-15.14
-16.55
-18.01
-19.65
-21.49
-23.43
-25.23
-26.62
-27.43
-27.63
-27.35
-26.76
-26
-25.13
-24.2
-23.31
-22.57
-22.1
-22.03
-22.32
-22.85
-23.38
-23.58
-23.12
-21.73
-19.28
-15.84
-11.62
-6.97
-2.24
2.27
6.3
9.71
12.41
14.44
15.91
17.01
17.97
18.94
19.96
20.89
21.55
21.77
21.47
20.71
19.63
18.34
16.89
15.25
13.38
11.27
9
6.63
4.25
1.84
-0.69
-3.42
-6.29
-9.13
-11.67
-13.69
-15.16
-16.2
-17.06
-17.94
-18.88
-19.76
-20.43
-20.84
-21.13
-21.58
-22.47
-23.94
-25.92
-28.07
-29.95
-31.15
-31.35
-30.4
-28.25
-24.9
-20.42
-14.95
-8.75
-2.15
4.52
11.06
17.41
23.64
29.92
36.3
42.7
48.85
54.38
58.91
62.12
63.82
64
62.86
60.79
58.33
56.04
54.42
53.86
54.51
56.38
59.25
62.79
66.58
70.26
73.6
76.62
79.56
82.74
86.47
90.8
95.57
100.33
104.58
107.91
110.13
111.35
111.91
112.2
112.56
113.24
114.31
115.69
117.13
118.22
118.45
117.28
114.23
109.01
101.55
91.92
80.39
67.45
53.77
40.28
27.9
17.33
8.71
1.56
-5.1
-12.35
-20.96
-31.2
-42.78
-55.13
-67.6
-79.7
-91.19
-101.99
-112.18
-121.9
-131.33
-140.65
-149.95
-159.12
-167.77
-175.28
-180.96
-184.42
-185.76
-185.58
-184.73
-183.86
-183.03
-181.65
-178.76
-173.53
-165.75
-156.02
-145.69
-136.36
-129.42
-125.67
-125.12
-127
-129.97
-132.5
-133.2
-131.23
-126.38
-119.08
-110.25
-100.96
-92.28
-85.01
-79.61
-76.21
-74.64
-74.42
-74.85
-74.98
-73.72
-70.05
-63.33
-53.61
-41.74
-29.24
-17.81
-8.81
-2.8
0.48
1.94
2.66
3.56
5.22
7.89
11.66
16.48
22.18
28.3
34.13
38.84
41.72
42.49
41.5
39.62
37.97
37.53
38.74
41.41
44.81
47.92
49.77
49.7
47.5
43.42
38.16
32.68
28.09
25.44
25.5
28.6
34.41
41.98
49.81
56.22
59.77
59.65
55.87
49.1
40.41
30.87
21.37
12.58
5.04
-0.82
-4.67
-6.38
-6.14
-4.34
-1.44
2.17
6.34
11.04
16.29
21.98
27.88
33.63
38.86
43.24
46.52
48.61
49.52
49.41
48.49
47.04
45.3
43.44
41.52
39.54
37.44
35.17
32.76
30.31
28.02
26.16
24.98
24.62
25.02
25.9
26.79
27.14
26.42
24.28
20.71
16.02
10.8
5.81
1.71
-1.07
-2.49
-2.93
-2.99
-3.33
-4.4
-6.35
-8.97
-11.86
-14.6
-16.9
-18.69
-20.04
-21.07
-21.75
-21.89
-21.17
-19.27
-16.06
-11.71
-6.66
-1.47
3.38
7.65
11.36
14.71
17.88
20.91
23.57
25.58
26.66
26.76
26.06
24.91
23.69
22.63
21.79
21.08
20.41
19.76
19.19
18.76
18.44
18.07
17.4
16.27
14.7
12.95
11.35
10.22
9.68
9.61
9.7
9.59
8.98
7.74
5.86
3.46
0.69
-2.24
-5.15
-7.94
-10.58
-13.14
-15.73
-18.45
-21.35
-24.43
-27.64
-30.88
-34.02
-36.8
-38.91
-40
-39.74
-38
-34.8
-30.36
-24.96
-18.87
-12.34
-5.58
1.13
7.44
13.01
17.57
21.02
23.49
25.2
26.39
27.17
27.53
27.38
26.69
25.51
24.03
22.44
20.91
19.55
18.39
17.4
16.52
15.6
14.47
12.97
11.08
8.88
6.62
4.52
2.7
1.14
-0.33
-1.86
-3.53
-5.3
-7.1
-8.8
-10.35
-11.74
-12.97
-14.08
-15.12
-16.15
-17.22
-18.35
-19.57
-20.9
-22.37
-23.96
-25.53
-26.84
-27.53
-27.29
-25.98
-23.67
-20.59
-17.03
-13.22
-9.16
-4.79
0.03
5.29
10.77
16.05
20.61
24.03
26.16
27.12
27.25
26.99
26.63
26.34
26.14
26
25.9
25.81
25.69
25.39
24.74
23.66
22.17
20.43
18.69
17.14
15.82
14.59
13.2
11.39
9.03
6.18
3.19
0.51
-1.41
-2.36
-2.47
-2.2
-2.16
-2.88
-4.61
-7.26
-10.44
-13.67
-16.57
-18.88
-20.55
-21.61
-22.15
-22.32
-22.33
-22.45
-22.92
-23.86
-25.17
-26.53
-27.45
-27.47
-26.23
-23.64
-19.8
-14.98
-9.59
-4.08
1.13
5.7
9.44
12.36
14.6
16.33
17.72
18.8
19.54
19.92
19.95
19.71
19.31
18.83
18.29
17.66
16.87
15.87
14.67
13.31
11.89
10.53
9.3
8.26
7.37
6.57
5.8
5
4.15
3.23
2.19
0.96
-0.51
-2.22
-4.1
-6.02
-7.88
-9.67
-11.5
-13.48
-15.74
-18.24
-20.84
-23.35
-25.58
-27.41
-28.78
-29.69
-30.08
-29.88
-28.97
-27.28
-24.82
-21.69
-17.98
-13.81
-9.2
-4.16
1.21
6.67
11.77
16
18.95
20.49
20.85
20.49
19.9
19.41
19.08
18.83
18.49
18
17.41
16.8
16.22
15.62
14.89
13.96
12.83
11.59
10.32
9.11
7.99
6.91
5.83
4.69
3.48
2.17
0.74
-0.79
-2.37
-3.91
-5.3
-6.43
-7.33
-8.09
-8.87
-9.83
-11.06
-12.57
-14.36
-16.41
-18.7
-21.23
-23.89
-26.47
-28.64
-30.1
-30.6
-30.07
-28.6
-26.39
-23.68
-20.65
-17.36
-13.8
-9.9
-5.57
-0.83
4.18
9.18
13.82
17.8
20.93
23.2
24.72
25.63
26.05
26.09
25.83
25.38
24.84
24.31
23.77
23.15
22.37
21.37
20.15
18.77
17.29
15.76
14.16
12.49
10.72
8.85
6.89
4.86
2.8
0.82
-0.98
-2.59
-4.04
-5.54
-7.29
-9.38
-11.72
-14.06
-16.06
-17.53
-18.54
-19.33
-20.25
-21.48
-22.96
-24.49
-25.82
-26.85
-27.62
-28.25
-28.75
-28.96
-28.59
-27.4
-25.29
-22.3
-18.6
-14.29
-9.48
-4.27
1.17
6.51
11.36
15.37
18.34
20.31
21.48
22.16
22.56
22.82
23
23.08
23.08
23.06
23.03
22.95
22.7
22.09
20.99
19.36
17.36
15.23
13.18
11.32
9.62
7.98
6.32
4.61
2.93
1.33
-0.23
-1.83
-3.6
-5.55
-7.57
-9.43
-10.94
-12.05
-12.89
-13.69
-14.67
-15.9
-17.4
-19.06
-20.84
-22.66
-24.47
-26.12
-27.41
-28.12
-28.11
-27.32
-25.77
-23.45
-20.39
-16.58
-12.14
-7.3
-2.37
2.34
6.62
10.32
13.42
15.94
17.96
19.59
20.93
22.03
22.86
23.31
23.26
22.71
21.8
20.76
19.88
19.29
18.96
18.69
18.24
17.41
16.17
14.6
12.89
11.22
9.71
8.44
7.39
6.55
5.88
5.31
4.72
3.99
2.96
1.6
-0.04
-1.79
-3.44
-4.85
-5.96
-6.85
-7.62
-8.43
-9.46
-10.9
-12.97
-15.82
-19.43
-23.59
-27.87
-31.72
-34.6
-36.13
-36.12
-34.59
-31.69
-27.66
-22.7
-16.99
-10.68
-3.98
2.81
9.28
14.95
19.47
22.68
24.69
25.79
26.3
26.5
26.52
26.45
26.39
26.45
26.71
27.13
27.55
27.72
27.4
26.45
24.91
22.94
20.8
18.74
16.97
15.54
14.4
13.33
12.05
10.38
8.23
5.7
3.01
0.39
-1.95
-3.9
-5.41
-6.5
-7.24
-7.76
-8.22
-8.8
-9.6
-10.65
-11.91
-13.32
-14.77
-16.17
-17.43
-18.46
-19.12
-19.27
-18.74
-17.37
-15.06
-11.85
-7.87
-3.32
1.62
6.94
12.71
19.1
26.15
33.74
41.54
49.11
56.06
62.19
67.56
72.44
77.21
82.29
87.92
94.12
100.69
107.27
113.54
119.38
124.97
130.72
137.05
144.19
151.92
159.63
166.56
172.06
175.99
178.7
180.84
182.97
185.29
187.58
189.4
190.31
190.02
188.28
184.84
179.4
171.99
163.14
153.99
145.85
139.55
134.76
129.94
122.94
112.09
97.11
79.36
61.14
44.61
30.72
19.04
8.19
-3.12
-15.36
-28.07
-40.32
-51.41
-61.3
-70.58
-79.92
-89.6
-99.29
-108.28
-115.93
-122.09
-127.16
-131.94
-137.17
-143.33
-150.58
-158.91
-168.46
-179.55
-192.71
-208.32
-226.37
-246.29
-267.07
-287.65
-307.26
-325.66
-343.09
-360
-376.72
-393.2
-408.85
-422.56
-432.89
-438.29
-437.6
-430.58
-417.97
-401.43
-382.79
-363.32
-343.1
-320.99
-295.16
-263.89
-226.45
-183.46
-136.82
-89.28
-43.82
-3.07
31.03
57.44
75.98
87.15
92.04
92.12
89.18
85.2
82.11
81.44
83.86
89.01
95.53
101.62
105.7
106.98
105.79
103.42
101.5
101.35
103.35
106.82
110.24
111.92
110.64
106.13
99.12
90.98
83.15
76.59
71.58
67.86
64.94
62.43
60.21
58.27
56.51
54.62
52.16
48.75
44.45
39.82
35.77
33.18
32.46
33.3
34.76
35.62
34.9
32.21
27.85
22.66
17.61
13.46
10.46
8.33
6.5
4.37
1.69
-1.36
-4.31
-6.72
-8.41
-9.6
-10.69
-11.97
-13.46
-14.91
-15.98
-16.47
-16.38
-15.78
-14.7
-13.08
-10.82
-7.96
-4.68
-1.24
2.1
5.19
7.94
10.22
11.87
12.72
12.81
12.44
12.11
12.3
13.27
14.9
16.83
18.63
19.98
20.75
20.99
20.87
20.58
20.32
20.25
20.45
20.83
21.22
21.38
21.19
20.65
19.91
19.16
18.52
17.93
17.27
16.42
15.4
14.31
13.32
12.44
11.57
10.55
9.24
7.69
6.05
4.49
3.07
1.66
0.08
-1.82
-4
-6.32
-8.6
-10.72
-12.66
-14.39
-15.8
-16.7
-16.87
-16.21
-14.75
-12.65
-10.11
-7.17
-3.79
0.08
4.34
8.67
12.6
15.71
17.88
19.35
20.62
22.14
24.1
26.35
28.5
30.23
31.39
32
32.16
31.87
31.03
29.62
27.8
25.98
24.63
24.02
24.02
24.18
23.95
22.99
21.37
19.48
17.78
16.6
15.93
15.51
15.04
14.27
13.14
11.69
9.95
7.94
5.63
3.01
0.16
-2.75
-5.56
-8.16
-10.47
-12.52
-14.29
-15.8
-17.01
-17.85
-18.26
-18.18
-17.61
-16.59
-15.23
-13.65
-11.91
-9.98
-7.77
-5.19
-2.23
1
4.38
7.73
10.95
14
16.84
19.47
21.83
23.85
25.44
26.5
26.94
26.75
26.02
24.92
23.73
22.74
22.18
22.17
22.66
23.41
24.06
24.21
23.54
21.95
19.63
16.97
14.4
12.23
10.49
8.99
7.41
5.48
3.11
0.41
-2.32
-4.8
-6.81
-8.31
-9.44
-10.45
-11.61
-13.15
-15.16
-17.56
-20.17
-22.73
-24.97
-26.63
-27.6
-27.91
-27.78
-27.52
-27.44
-27.67
-28.07
-28.27
-27.77
-26.14
-23.21
-19.08
-14.18
-9.03
-4.18
0.02
3.4
6
7.97
9.53
10.85
12.02
13.06
13.97
14.72
15.37
15.95
16.44
16.76
16.75
16.29
15.38
14.17
12.91
11.8
10.9
10.15
9.45
8.71
7.96
7.25
6.59
5.89
5.01
3.88
2.57
1.28
0.25
-0.33
-0.4
-0.06
0.54
1.22
1.77
2
1.79
1.1
0.02
-1.26
-2.48
-3.45
-4.03
-4.22
-4.14
-3.9
-3.6
-3.29
-2.94
-2.43
-1.61
-0.34
1.41
3.57
5.94
8.3
10.48
12.37
13.98
15.37
16.61
17.73
18.69
19.39
19.74
19.63
19.07
18.13
16.97
15.78
14.78
14.12
13.94
14.27
15.02
15.96
16.74
17
16.51
15.31
13.67
12.01
10.63
9.61
8.75
7.71
6.14
3.88
0.97
-2.44
-6.13
-9.94
-13.72
-17.37
-20.85
-24.21
-27.49
-30.79
-34.11
-37.34
-40.24
-42.62
-44.34
-45.42
-46.04
-46.35
-46.49
-46.41
-45.98
-44.99
-43.28
-40.83
-37.78
-34.38
-30.97
-27.83
-25.19
-23.19
-21.89
-21.29
-21.3
-21.71
-22.13
-22.17
-21.4
-19.56
-16.51
-12.28
-7.05
-1.07
5.26
11.53
17.28
22.1
25.77
28.21
29.62
30.33
30.7
30.98
31.23
31.32
31.01
30.12
28.63
26.73
24.66
22.63
20.7
18.8
16.75
14.36
11.45
7.89
3.67
-1.03
-5.93
-10.58
-14.58
-17.64
-19.67
-20.69
-20.76
-19.9
-18.09
-15.32
-11.65
-7.27
-2.37
2.88
8.38
14.08
19.84
25.45
30.5
34.55
37.21
38.4
38.41
37.95
37.92
39.13
42.01
46.44
51.84
57.39
62.19
65.56
67.06
66.51
64.06
60.09
55.22
50.14
45.54
41.83
39.1
37.09
35.2
32.66
28.73
23.01
15.57
7.08
-1.32
-8.44
-13.41
-16.05
-16.82
-16.64
-16.5
-17.1
-18.83
-21.74
-25.67
-30.3
-35.17
-39.64
-43.02
-44.77
-44.69
-43.06
-40.53
-37.96
-36.06
-35.21
-35.27
-35.64
-35.42
-33.7
-29.9
-23.98
-16.52
-8.51
-0.98
5.4
10.49
14.61
18.25
21.7
24.86
27.3
28.57
28.47
27.24
25.43
23.65
22.3
21.43
20.84
20.27
19.59
18.89
18.29
17.79
17.21
16.28
14.83
12.98
11.12
9.72
9.05
9.04
9.29
9.37
9.03
8.35
7.65
7.18
6.94
6.53
5.36
2.86
-1.24
-6.86
-13.69
-21.25
-29.13
-36.96
-44.33
-50.81
-55.94
-59.37
-61
-61.04
-59.87
-57.88
-55.32
-52.18
-48.38
-43.87
-38.81
-33.47
-28.19
-23.22
-18.66
-14.52
-10.78
-7.46
-4.59
-2.32
-0.86
-0.55
-1.8
-4.82
-9.51
-15.25
-21.11
-26.02
-29.2
-30.33
-29.56
-27.41
-24.5
-21.44
-18.72
-16.69
-15.55
-15.22
-15.37
-15.48
-15.01
-13.59
-11.1
-7.75
-3.99
-0.36
2.71
4.97
6.47
7.44
8.17
8.8
9.26
9.32
8.75
7.44
5.51
3.21
0.85
-1.3
-3.03
-4.15
-4.4
-3.52
-1.32
2.25
7.01
12.64
18.69
24.76
30.52
35.7
40.15
43.82
46.82
49.41
51.91
54.57
57.4
60.12
62.21
63.09
62.26
59.41
54.44
47.45
38.71
28.66
17.98
7.49
-1.95
-9.65
-15.24
-18.67
-20.21
-20.3
-19.49
-18.28
-17.1
-16.24
-15.8
-15.76
-15.96
-16.22
-16.42
-16.48
-16.42
-16.25
-16.07
-15.93
-15.95
-16.22
-16.8
-17.69
-18.83
-20.04
-21.14
-21.91
-22.16
-21.78
-20.75
-19.13
-17.05
-14.59
-11.79
-8.62
-5.01
-0.87
3.83
9.07
14.76
20.7
26.62
32.12
36.84
40.52
43.22
45.31
47.39
50.06
53.71
58.27
63.31
68.27
72.67
76.38
79.58
82.59
85.66
88.77
91.71
94.23
96.23
97.8
99.12
100.19
100.6
99.55
96.1
89.53
79.71
67.23
53.2
38.89
25.35
13.16
2.47
-6.9
-15.18
-22.57
-29.18
-35.1
-40.51
-45.64
-50.81
-56.3
-62.21
-68.47
-74.78
-80.69
-85.66
-89.16
-90.69
-89.85
-86.37
-80.24
-71.78
-61.71
-51.01
-40.66
-31.36
-23.3
-16.27
-9.86
-3.87
1.59
6.15
9.51
11.7
13.15
14.49
16.16
18.18
20.1
21.3
21.36
20.28
18.48
16.55
14.92
13.72
12.72
11.56
9.91
7.63
4.82
1.73
-1.34
-4.2
-6.79
-9.16
-11.38
-13.47
-15.34
-16.88
-18.07
-19.07
-20.21
-21.82
-24.1
-26.93
-29.93
-32.58
-34.45
-35.39
-35.57
-35.44
-35.53
-36.25
-37.74
-39.82
-42.06
-43.97
-45.06
-44.99
-43.59
-40.84
-36.86
-31.86
-26.17
-20.13
-14.07
-8.23
-2.76
2.29
6.95
11.27
15.29
19.02
22.33
24.94
26.47
26.59
25.2
22.62
19.42
16.3
13.73
11.79
10.09
8.1
5.34
1.66
-2.64
-7.06
-11.08
-14.48
-17.36
-20.05
-22.9
-26
-29.11
-31.75
-33.4
-33.72
-32.66
-30.41
-27.29
-23.56
-19.42
-14.98
-10.33
-5.59
-0.9
3.64
7.97
12.05
15.89
19.49
22.83
25.93
28.8
31.49
34.1
36.74
39.49
42.37
45.27
47.99
50.23
51.73
52.29
51.83
50.41
48.11
45.07
41.44
37.42
33.34
29.62
26.71
24.93
24.4
24.96
26.29
27.98
29.74
31.41
32.96
34.35
35.52
36.29
36.47
35.95
34.83
33.41
32.09
31.19
30.7
30.24
29.08
26.49
21.92
15.39
7.37
-1.3
-9.79
-17.47
-24.02
-29.36
-33.55
-36.68
-38.91
-40.5
-41.82
-43.24
-44.99
-47.1
-49.42
-51.7
-53.74
-55.3
-56.14
-56
-54.61
-51.86
-47.96
-43.36
-38.61
-34.06
-29.73
-25.37
-20.66
-15.5
-10.11
-4.91
-0.36
3.37
6.36
8.97
11.54
14.26
17.06
19.66
21.69
22.86
23.09
22.58
21.78
21.18
21.11
21.6
22.31
22.66
22.07
20.17
16.99
12.9
8.51
4.41
1.01
-1.57
-3.47
-4.99
-6.44
-8.11
-10.17
-12.71
-15.64
-18.7
-21.5
-23.58
-24.67
-24.77
-24.18
-23.35
-22.73
-22.5
-22.64
-22.97
-23.38
-23.83
-24.42
-25.28
-26.47
-27.95
-29.61
-31.3
-32.88
-34.21
-35.16
-35.58
-35.25
-33.88
-31.22
-27.13
-21.72
-15.38
-8.75
-2.48
2.89
7.11
10.2
12.38
13.86
14.82
15.39
15.65
15.69
15.58
15.36
15.02
14.55
13.99
13.44
13.01
12.78
12.68
12.62
12.39
11.87
11
9.86
8.59
7.35
6.24
5.24
4.3
3.31
2.21
1.08
0.02
-0.85
-1.47
-1.95
-2.46
-3.25
-4.49
-6.21
-8.32
-10.61
-12.85
-14.84
-16.48
-17.8
-18.91
-19.94
-20.96
-21.85
-22.32
-22.01
-20.66
-18.15
-14.6
-10.31
-5.66
-0.98
3.4
7.18
10.09
11.92
12.59
12.21
11.03
9.37
7.57
5.89
4.5
3.47
2.7
2.02
1.21
0.11
-1.2
-2.43
-3.18
-3.09
-2.14
-0.62
0.92
1.92
2.08
1.4
0.19
-1.09
-2.04
-2.36
-1.96
-0.9
0.62
2.31
3.88
5.07
5.79
6.07
6.1
6.11
6.32
6.8
7.42
7.82
7.6
6.39
4.02
0.64
-3.38
-7.57
-11.54
-15.15
-18.45
-21.6
-24.66
-27.53
-29.87
-31.29
-31.48
-30.36
-28.05
-24.81
-20.85
-16.26
-11.02
-5.18
1.05
7.22
12.73
17.07
19.99
21.64
22.48
23.05
23.8
24.91
26.27
27.58
28.53
28.83
28.3
26.94
24.87
22.28
19.46
16.7
14.22
12.19
10.63
9.4
8.23
6.85
5.07
2.99
0.92
-0.72
-1.62
-1.81
-1.62
-1.61
-2.23
-3.6
-5.47
-7.41
-9.07
-10.39
-11.61
-13.07
-14.96
-17.15
-19.34
-21.3
-23.01
-24.73
-26.84
-29.48
-32.44
-35.16
-36.99
-37.51
-36.7
-34.87
-32.48
-29.85
-27.05
-23.89
-20.12
-15.61
-10.47
-5.02
0.3
5.09
9.06
12.09
14.21
15.54
16.28
16.66
16.87
17.02
17.16
17.27
17.38
17.49
17.7
18.05
18.52
19.03
19.47
19.71
19.71
19.4
18.72
17.59
15.98
14
11.87
9.9
8.34
7.24
6.46
5.71
4.68
3.2
1.26
-0.92
-3.04
-4.86
-6.27
-7.34
-8.28
-9.32
-10.64
-12.32
-14.33
-16.64
-19.11
-21.6
-23.88
-25.75
-27.11
-28.01
-28.66
-29.32
-30.11
-30.9
-31.3
-30.82
-29.01
-25.69
-20.94
-15.09
-8.55
-1.8
4.78
10.81
15.97
20.05
22.9
24.63
25.46
25.78
25.94
26.17
26.49
26.77
26.82
26.53
25.93
25.13
24.34
23.69
23.29
23.15
23.23
23.41
23.53
23.4
22.78
21.57
19.78
17.63
15.5
13.8
12.86
12.8
13.44
14.37
15.12
15.26
14.63
13.28
11.49
9.56
7.75
6.16
4.84
3.8
3.07
2.67
2.57
2.65
2.77
2.77
2.59
2.22
1.7
1.12
0.52
-0.02
-0.45
-0.74
-0.9
-0.99
-1.08
-1.2
-1.27
-1.2
-0.93
-0.52
-0.12
0.1
0.07
-0.13
-0.33
-0.41
-0.4
-0.39
-0.54
-0.87
-1.32
-1.83
-2.37
-3.03
-3.95
-5.15
-6.47
-7.63
-8.39
-8.66
-8.63
-8.67
-9.09
-10
-11.24
-12.5
-13.49
-14.19
-14.77
-15.56
-16.83
-18.6
-20.63
-22.63
-24.34
-25.74
-27
-28.39
-30.09
-32.14
-34.44
-36.84
-39.18
-41.34
-43.16
-44.39
-44.73
-43.94
-42.01
-39.14
-35.71
-32.07
-28.38
-24.51
-20.15
-15
-8.98
-2.29
4.57
11.04
16.66
21.15
24.48
26.77
28.27
29.21
29.81
30.2
30.51
30.81
31.21
31.75
32.44
33.15
33.67
33.77
33.33
32.4
31.15
29.85
28.66
27.66
26.76
25.82
24.76
23.5
22.08
20.53
18.89
17.16
15.33
13.34
11.19
8.9
6.54
4.2
1.9
-0.41
-2.93
-5.89
-9.43
-13.52
-17.96
-22.42
-26.52
-29.98
-32.55
-34.12
-34.66
-34.29
-33.25
-31.83
-30.22
-28.41
-26.22
-23.32
-19.59
-15.1
-10.27
-5.66
-1.74
1.2
3.17
4.38
5.15
5.79
6.51
7.42
8.54
9.75
10.9
11.83
12.43
12.71
12.71
12.52
12.19
11.7
11.01
10.08
8.95
7.72
6.56
5.59
4.84
4.2
3.45
2.31
0.63
-1.56
-4.05
-6.52
-8.68
-10.39
-11.77
-13.08
-14.59
-16.42
-18.49
-20.57
-22.48
-24.12
-25.54
-26.76
-27.74
-28.23
-27.95
-26.72
-24.55
-21.72
-18.5
-15.13
-11.61
-7.88
-3.88
0.29
4.34
7.97
10.95
13.25
14.95
16.25
17.36
18.46
19.67
21.03
22.48
23.83
24.89
25.48
25.61
25.42
25.2
25.22
25.63
26.41
27.38
28.31
28.99
29.37
29.55
29.74
30.16
30.9
31.91
32.95
33.77
34.18
34.2
34.07
34.09
34.6
35.68
37.24
39.02
40.66
41.89
42.59
42.86
43.05
43.72
45.43
48.56
53.01
58.03
62.29
64.19
62.24
55.5
43.8
27.9
9.42
-9.3
-25.6
-36.95
-41.57
-38.76
-29
-13.63
5.54
26.58
47.45
65.81
78.94
84.15
79.7
65.83
45.42
23.66
6.64
-0.54
4.72
21.88
47.8
77.95
107.88
134.02
154.08
166.97
172.8
172.91
169.96
167.63
169.78
179.18
196.32
218.86
242.13
260.57
269.42
266.15
250.85
225.66
193.69
158.02
121.36
86.15
54.79
29.56
11.93
1.9
-2.36
-4.12
-7.01
-13.84
-25.9
-42.81
-63.18
-85.21
-107.3
-128.27
-147.43
-164.48
-179.47
-192.77
-204.82
-215.97
-226.34
-235.87
-244.49
-252.31
-259.73
-267.35
-275.62
-284.51
-293.34
-300.94
-305.99
-307.62
-305.67
-300.66
-293.44
-284.68
-274.64
-263.17
-250.07
-235.27
-218.97
-201.45
-182.91
-163.32
-142.55
-120.53
-97.47
-73.88
-50.5
-28.22
-8.06
8.93
21.83
30.03
33.41
32.47
28.18
21.73
14.26
6.67
-0.28
-6
-9.93
-11.67
-11.14
-8.76
-5.45
-2.46
-1
-1.93
-5.55
-11.66
-19.73
-29.11
-39.12
-48.99
-57.74
-64.09
-66.59
-63.99
-55.66
-41.98
-24.51
-5.79
11.26
24.1
31.3
32.96
30.43
25.74
20.67
16.24
12.64
9.61
6.92
4.6
2.79
1.47
0.28
-1.38
-3.86
-6.85
-9.36
-10.08
-7.96
-2.79
4.72
13.16
20.98
26.87
30.22
31.1
30.23
28.65
27.44
27.4
28.8
31.36
34.43
37.19
38.97
39.4
38.56
36.92
35.18
34.12
34.44
36.47
40.19
45.14
50.68
56.15
61.08
65.3
68.89
72.08
75.08
78.05
81.05
84.02
86.87
89.46
91.67
93.41
94.51
94.75
93.81
91.29
86.85
80.3
71.75
61.58
50.36
38.67
27.03
15.87
5.53
-3.66
-11.44
-17.73
-22.71
-26.88
-30.87
-35.17
-39.81
-44.26
-47.58
-48.78
-47.36
-43.54
-38.21
-32.57
-27.54
-23.44
-19.97
-16.41
-12.07
-6.6
-0.08
7.03
14.1
20.55
25.99
30.32
33.7
36.52
39.2
42.05
45.09
48.05
50.47
51.85
51.82
50.06
46.29
40.26
31.86
21.26
9.13
-3.44
-15.2
-25.04
-32.38
-37.2
-39.9
-40.91
-40.61
-39.13
-36.55
-33.09
-29.16
-25.43
-22.56
-21.13
-21.37
-23.14
-25.98
-29.21
-32.01
-33.7
-33.76
-32.05
-28.69
-24.1
-18.8
-13.3
-7.96
-3
1.52
5.53
9.02
11.94
14.27
16.04
17.37
18.37
19.11
19.6
19.8
19.69
19.23
18.39
17.14
15.43
13.28
10.79
8.12
5.44
2.82
0.21
-2.49
-5.31
-8.18
-10.9
-13.28
-15.23
-16.82
-18.21
-19.58
-21.04
-22.66
-24.47
-26.5
-28.73
-31.2
-33.82
-36.52
-39.11
-41.29
-42.68
-42.92
-41.78
-39.24
-35.53
-31.01
-26.04
-20.9
-15.77
-10.76
-6.09
-1.96
1.38
3.81
5.35
6.2
6.61
6.88
7.21
7.68
8.26
8.77
8.96
8.66
7.78
6.31
4.28
1.64
-1.69
-5.69
-10.11
-14.36
-17.63
-19.16
-18.62
-16.21
-12.62
-8.79
-5.6
-3.62
-3.07
-3.81
-5.47
-7.51
-9.41
-10.76
-11.49
-11.8
-12.15
-13.03
-14.74
-17.31
-20.39
-23.47
-25.9
-27.12
-26.72
-24.47
-20.4
-14.74
-7.87
-0.26
7.56
15.11
21.92
27.61
31.85
34.48
35.55
35.31
34.27
33.03
32.19
32.06
32.63
33.59
34.48
35.02
35.19
35.19
35.28
35.49
35.57
35.07
33.67
31.31
28.34
25.3
22.72
20.95
20.01
19.75
19.92
20.31
20.76
21.12
21.19
20.73
19.41
16.99
13.42
8.9
3.88
-1.15
-5.75
-9.72
-12.99
-15.58
-17.46
-18.58
-19
-18.93
-18.76
-18.77
-18.97
-19
-18.38
-16.72
-14.13
-11.08
-8.21
-5.85
-3.86
-1.73
1.1
4.72
8.74
12.35
14.82
15.83
15.63
14.85
14.13
13.93
14.37
15.39
16.82
18.51
20.23
21.69
22.51
22.37
21.18
19.16
16.77
14.51
12.7
11.31
10.09
8.7
6.93
4.81
2.54
0.32
-1.68
-3.42
-4.86
-5.97
-6.71
-7.1
-7.36
-7.9
-9.22
-11.62
-15.08
-19.2
-23.39
-27.14
-30.23
-32.81
-35.1
-37.24
-39.09
-40.27
-40.36
-39.12
-36.64
-33.27
-29.51
-25.75
-22.21
-18.86
-15.57
-12.15
-8.5
-4.6
-0.59
3.33
6.92
10.05
12.67
14.88
16.79
18.51
20.11
21.62
23.12
24.69
26.47
28.48
30.65
32.79
34.61
35.9
36.55
36.59
36.19
35.57
34.98
34.55
34.28
33.96
33.26
31.83
29.47
26.22
22.35
18.25
14.24
10.5
7.03
3.72
0.46
-2.82
-6.15
-9.52
-12.92
-16.28
-19.52
-22.47
-24.97
-26.94
-28.35
-29.33
-29.96
-30.27
-30.13
-29.34
-27.77
-25.41
-22.46
-19.17
-15.77
-12.38
-9.06
-5.86
-2.91
-0.42
1.39
2.47
2.93
3.09
3.29
3.79
4.68
5.87
7.21
8.55
9.82
11.07
12.38
13.84
15.4
16.99
18.47
19.72
20.66
21.26
21.51
21.38
20.85
19.95
18.69
17.11
15.27
13.24
11.15
9.17
7.39
5.8
4.22
2.38
0.01
-2.94
-6.36
-9.98
-13.51
-16.74
-19.56
-21.95
-23.94
-25.56
-26.8
-27.6
-27.82
-27.3
-25.89
-23.58
-20.5
-17
-13.37
-9.84
-6.48
-3.23
0.06
3.5
7.16
11.02
14.88
18.35
20.85
21.89
21.31
19.57
17.72
17.09
18.73
22.99
29.34
36.7
44
50.67
56.92
63.51
71.27
80.55
90.89
100.97
108.86
112.39
109.52
98.63
78.95
50.81
15.98
-22.43
-60.35
-93.62
-118.99
-134.83
-141.38
-140.33
-134.05
-124.72
-113.98
-102.76
-91.6
-80.88
-70.88
-61.69
-53.14
-44.73
-35.84
-26.05
-15.34
-4.15
6.85
17.05
26.19
34.36
41.82
48.78
55.13
60.52
64.45
66.58
66.82
65.33
62.39
58.29
53.3
47.7
41.88
36.27
31.32
27.32
24.3
22.1
20.44
19.06
17.73
16.34
14.8
13.11
11.3
9.48
7.74
6.08
4.4
2.45
-0.02
-3.15
-6.91
-11.06
-15.28
-19.23
-22.67
-25.47
-27.61
-29.16
-30.29
-31.21
-32.14
-33.19
-34.31
-35.15
-35.25
-34.12
-31.43
-27.19
-21.7
-15.49
-9.09
-2.89
2.86
8.1
12.8
16.96
20.53
23.49
25.88
27.88
29.7
31.51
33.37
35.17
36.65
37.5
37.46
36.44
34.45
31.64
28.17
24.17
19.75
15.01
10.07
5.07
0.14
-4.57
-8.88
-12.56
-15.35
-17.05
-17.61
-17.25
-16.42
-15.67
-15.41
-15.8
-16.75
-18.05
-19.57
-21.36
-23.53
-26.1
-28.88
-31.41
-33.15
-33.69
-32.86
-30.78
-27.78
-24.24
-20.45
-16.63
-12.87
-9.18
-5.57
-2.05
1.29
4.29
6.86
8.98
10.8
12.55
14.43
16.47
18.51
20.29
21.67
22.68
23.51
24.32
25.15
25.8
25.99
25.53
24.41
22.79
20.89
18.88
16.84
14.79
12.8
11.01
9.55
8.49
7.75
7.12
6.35
5.3
3.91
2.26
0.46
-1.41
-3.37
-5.46
-7.72
-10.12
-12.49
-14.55
-16.06
-16.87
-16.99
-16.58
-15.85
-14.89
-13.72
-12.22
-10.27
-7.84
-4.99
-1.94
1.07
3.82
6.11
7.88
9.21
10.24
11.17
12.08
12.86
13.18
12.62
10.92
8.1
4.57
0.98
-1.99
-3.82
-4.33
-3.65
-2.14
-0.26
1.54
2.97
3.85
4.15
3.98
3.43
2.57
1.4
-0.1
-1.88
-3.8
-5.65
-7.21
-8.37
-9.15
-9.71
-10.24
-10.87
-11.66
-12.58
-13.59
-14.69
-15.93
-17.28
-18.58
-19.54
-19.81
-19.11
-17.4
-14.92
-12.07
-9.22
-6.57
-4.08
-1.6
0.91
3.35
5.44
6.89
7.54
7.45
6.82
5.9
4.89
3.92
3.12
2.61
2.48
2.75
3.28
3.81
4.06
3.78
2.9
1.49
-0.21
-1.89
-3.29
-4.26
-4.87
-5.31
-5.81
-6.5
-7.34
-8.21
-8.95
-9.56
-10.14
-10.86
-11.88
-13.21
-14.77
-16.38
-17.83
-18.99
-19.76
-20.14
-20.2
-20
-19.51
-18.56
-16.9
-14.32
-10.81
-6.59
-2.04
2.51
6.95
11.32
15.74
20.17
24.31
27.75
30.11
31.34
31.72
31.75
31.87
32.29
32.95
33.62
34.09
34.35
34.57
34.98
35.71
36.71
37.81
38.78
39.5
39.97
40.27
40.51
40.76
41.05
41.42
41.91
42.56
43.33
44.13
44.89
45.61
46.46
47.77
49.81
52.61
55.85
58.91
61.2
62.43
62.84
63.1
63.98
65.98
69.14
73.05
77.2
81.38
85.88
91.59
99.72
111.36
127.14
146.95
169.73
193.55
215.77
233.42
243.72
244.68
235.52
216.92
190.81
159.9
127.1
94.91
65.18
39.02
16.96
-0.83
-14.42
-24.2
-31.1
-36.77
-43.36
-53.06
-67.23
-85.76
-106.85
-127.61
-145.09
-157.29
-163.68
-165.05
-162.89
-158.72
-153.89
-149.66
-147.5
-148.97
-155.33
-166.86
-182.67
-200.8
-218.89
-234.87
-247.4
-255.99
-260.83
-262.57
-262.07
-260.21
-257.49
-253.76
-248.07
-238.95
-225.13
-206.17
-182.97
-157.45
-131.82
-107.66
-85.42
-64.54
-44.03
-23.23
-2.11
18.71
38.45
56.46
72.33
85.73
96.26
103.54
107.53
108.79
108.5
108.06
108.49
110
112
113.4
113.26
111.11
107.04
101.45
94.8
87.43
79.62
71.67
63.89
56.6
49.89
43.69
37.81
32.1
26.54
21.31
16.64
12.69
9.43
6.63
3.94
1.06
-2.18
-5.75
-9.49
-13.24
-16.92
-20.58
-24.39
-28.54
-33.25
-38.62
-44.7
-51.37
-58.28
-64.87
-70.38
-74.02
-75.15
-73.45
-68.92
-61.94
-53.07
-43.06
-32.77
-23.06
-14.71
-8.2
-3.61
-0.7
0.99
1.85
2.02
1.46
-0.04
-2.55
-5.9
-9.66
-13.19
-15.8
-16.92
-16.26
-13.89
-10.22
-5.91
-1.75
1.57
3.62
4.36
4.15
3.64
3.5
4.17
5.73
7.79
9.7
10.8
10.65
9.14
6.43
2.88
-1.1
-5.08
-8.65
-11.43
-13.25
-14.19
-14.74
-15.62
-17.59
-21.11
-26
-31.46
-36.19
-38.85
-38.48
-34.9
-28.73
-21.18
-13.59
-6.98
-1.85
1.82
4.33
6.07
7.32
8.29
9.13
10.01
11.08
12.41
13.93
15.38
16.42
16.76
16.34
15.32
14.05
12.82
11.77
10.72
9.23
6.77
2.97
-2.2
-8.36
-14.84
-20.9
-25.98
-29.81
-32.28
-33.26
-32.41
-29.22
-23.29
-14.66
-4.02
7.44
18.36
27.6
34.47
38.62
39.83
37.93
32.93
25.31
16.19
7.21
0
-4.28
-5.32
-3.6
-0.03
4.46
9.18
13.81
18.25
22.53
26.7
30.77
34.68
38.29
41.33
43.49
44.51
44.28
42.92
40.75
38.15
35.48
32.95
30.66
28.58
26.65
24.73
22.69
20.42
17.87
15.13
12.39
9.95
8
6.5
5.22
3.79
1.94
-0.38
-2.96
-5.47
-7.61
-9.23
-10.36
-11.13
-11.68
-12.18
-12.88
-14.1
-16.3
-19.84
-24.89
-31.23
-38.31
-45.37
-51.63
-56.53
-59.69
-61.06
-60.75
-58.95
-55.76
-51.18
-45.11
-37.45
-28.36
-18.25
-7.82
2.2
11.31
19.35
26.41
32.66
38.07
42.31
45
45.89
45.2
43.49
41.5
39.88
38.94
38.73
39.04
39.62
40.17
40.41
40.1
39.06
37.29
34.97
32.49
30.28
28.64
27.66
27.12
26.59
25.58
23.69
20.81
17.14
13.06
9.06
5.46
2.37
-0.31
-2.81
-5.4
-8.35
-11.85
-16.07
-21.09
-26.84
-33.12
-39.65
-46.13
-52.36
-58.19
-63.37
-67.51
-69.99
-70.13
-67.44
-61.83
-53.69
-43.77
-32.9
-21.74
-10.74
-0.15
9.67
18.25
24.99
29.44
31.52
31.68
30.75
29.64
28.98
28.97
29.42
30.06
30.8
31.78
33.23
35.28
37.76
40.22
42.19
43.38
43.81
43.71
43.29
42.59
41.46
39.67
37.09
33.82
30.14
26.42
22.96
19.89
17.15
14.52
11.75
8.58
4.81
0.41
-4.52
-9.73
-14.79
-19.32
-23.06
-26.05
-28.62
-31.25
-34.33
-37.89
-41.55
-44.55
-46.09
-45.54
-42.7
-37.7
-31
-23.15
-14.75
-6.37
1.52
8.6
14.72
19.9
24.16
27.5
29.77
30.83
30.57
29.1
26.7
23.83
20.96
18.59
17.05
16.55
17.05
18.26
19.75
21.07
21.92
22.29
22.31
22.22
22.11
21.93
21.51
20.67
19.33
17.48
15.2
12.54
9.49
6.08
2.35
-1.56
-5.5
-9.32
-13
-16.63
-20.38
-24.45
-28.94
-33.85
-39.07
-44.45
-49.83
-55
-59.72
-63.62
-66.26
-67.2
-66.12
-62.93
-57.83
-51.24
-43.66
-35.6
-27.41
-19.33
-11.53
-4.17
2.58
8.51
13.45
17.34
20.25
22.39
24
25.31
26.46
27.53
28.56
29.56
30.56
31.49
32.26
32.69
32.65
32.04
30.9
29.35
27.52
25.53
23.4
21.15
18.74
16.22
13.62
10.93
8.13
5.15
1.96
-1.43
-4.92
-8.41
-11.86
-15.31
-18.9
-22.71
-26.78
-31.02
-35.3
-39.55
-43.78
-48.09
-52.52
-56.99
-61.19
-64.65
-66.85
-67.37
-65.98
-62.61
-57.36
-50.43
-42.17
-33
-23.4
-13.82
-4.65
3.82
11.37
17.83
23.06
27.05
29.88
31.82
33.18
34.28
35.28
36.24
37.15
37.97
38.67
39.2
39.48
39.42
38.96
38.08
36.86
35.33
33.5
31.26
28.49
25.15
21.3
17.22
13.23
9.59
6.35
3.37
0.38
-2.81
-6.23
-9.67
-12.9
-15.71
-18.13
-20.37
-22.7
-25.36
-28.46
-31.94
-35.73
-39.74
-43.95
-48.39
-53.03
-57.76
-62.26
-65.95
-68.11
-68.02
-65.22
-59.68
-51.86
-42.59
-32.78
-23.14
-14
-5.38
2.84
10.69
18.07
24.68
30.22
34.43
37.25
38.77
39.21
38.9
38.21
37.47
36.95
36.85
37.26
38.21
39.6
41.23
42.76
43.8
43.99
43.13
41.25
38.58
35.43
32.07
28.64
25.15
21.55
17.78
13.84
9.81
5.83
2.02
-1.56
-4.99
-8.46
-12.21
-16.37
-20.91
-25.63
-30.28
-34.64
-38.61
-42.17
-45.31
-48.03
-50.39
-52.53
-54.69
-57.05
-59.64
-62.21
-64.28
-65.27
-64.68
-62.18
-57.66
-51.18
-43
-33.55
-23.34
-12.95
-2.9
6.43
14.82
22.17
28.38
33.36
37.05
39.41
40.55
40.72
40.28
39.63
39.11
38.89
39
39.33
39.73
40.03
40.04
39.64
38.65
36.99
34.71
32.05
29.39
27.09
25.34
24.07
22.95
21.67
20
17.94
15.59
13.08
10.46
7.76
5.04
2.42
0.07
-1.97
-3.87
-5.97
-8.63
-12.14
-16.54
-21.64
-27.11
-32.64
-37.98
-42.97
-47.49
-51.36
-54.3
-55.92
-55.81
-53.61
-49.18
-42.67
-34.49
-25.24
-15.46
-5.58
4.14
13.58
22.53
30.74
37.82
43.44
47.4
49.78
50.93
51.34
51.52
51.83
52.47
53.45
54.73
56.26
57.96
59.69
61.27
62.5
63.29
63.64
63.7
63.61
63.46
63.12
62.33
60.77
58.17
54.39
49.51
43.72
37.29
30.4
23.04
15.03
6.1
-3.94
-15.03
-26.75
-38.49
-49.63
-59.74
-68.74
-76.78
-84.15
-91.1
-97.77
-104.15
-110.1
-115.37
-119.6
-122.31
-122.96
-121.07
-116.4
-108.94
-98.94
-86.76
-72.82
-57.57
-41.59
-25.6
-10.44
3.11
14.51
23.64
30.69
35.97
39.73
42.11
43.31
43.71
44.07
45.26
47.94
52.22
57.53
62.8
66.84
68.8
68.32
65.64
61.34
56.21
51
46.25
42.23
38.83
35.62
32.06
27.65
22.26
16.15
9.91
4.18
-0.6
-4.45
-7.7
-10.9
-14.51
-18.77
-23.68
-29.14
-35.03
-41.3
-47.98
-55.03
-62.39
-69.9
-77.4
-84.74
-91.72
-98.09
-103.58
-107.91
-110.94
-112.65
-113.11
-112.39
-110.48
-107.37
-103.2
-98.42
-93.85
-90.53
-89.45
-91.17
-95.7
-102.54
-110.88
-120.02
-129.64
-139.95
-151.49
-164.87
-180.31
-197.35
-214.75
-230.56
-242.47
-248.17
-245.91
-234.89
-215.42
-188.84
-157.1
-122.18
-85.57
-47.99
-9.65
29.36
68.48
106.43
141.41
171.54
195.51
212.95
224.42
231.13
234.45
235.54
235.29
234.39
233.59
233.71
235.54
239.56
245.67
253.14
260.81
267.53
272.57
275.95
278.46
281.32
285.69
292.26
300.96
311.09
321.63
331.62
340.43
347.8
353.71
358.21
361.11
361.81
359.15
351.54
337.37
315.69
286.96
253.36
218.51
186.46
160.46
141.93
130.16
122.91
117.64
112.56
107.29
102.73
100.4
101.61
106.79
115.17
125.01
134.07
140.23
142.1
139.24
132.16
121.94
109.74
96.44
82.6
68.56
54.72
41.71
30.28
20.97
13.73
7.78
1.71
-5.98
-16.24
-29.09
-43.45
-57.6
-69.85
-79.31
-86.41
-92.81
-100.82
-112.42
-128.4
-147.86
-168.63
-188.27
-205.24
-219.67
-233.33
-248.83
-268.53
-293.76
-324.76
-360.74
-399.73
-438.18
-470.95
-492.27
-498.04
-487.85
-465.52
-437.37
-408.68
-381.01
-351.79
-316.29
-270.88
-215.33
-153.05
-89.3
-29.01
24.72
71.02
110.74
145.68
177.67
207.57
234.12
253.65
261.27
253.42
230.25
196.38
158.97
124.09
93.54
64.34
30.92
-11.08
-61.82
-116.84
-168.96
-211.41
-240.61
-257
-264.33
-267.92
-272.76
-282.08
-296.75
-315.33
-334.63
-350.72
-360.14
-361.09
-353.63
-339.19
-319.53
-295.51
-266.62
-231.43
-188.62
-137.88
-80.33
-18.45
44.29
103.89
156.31
198.1
227.31
244.48
252.94
257.9
264.25
273.92
284.38
289.06
280.37
253.25
208.32
152.22
95.27
47.67
15.85
1.06
0.2
8.13
19.99
32.48
43.54
51.65
55.47
54.36
49.21
42.7
38.3
38.47
42.54
46.3
43.78
30.33
5.46
-26.41
-57.96
-82.63
-97.54
-104.03
-105.37
-103.27
-95.88
-79.06
-49.92
-10.46
31.66
66.09
84.92
86.68
76.81
64.16
55.81
53.69
54.59
53.49
47.67
38.84
32.25
33.07
42.65
56.99
68.35
69.15
56
31.62
3.56
-19.35
-31.24
-31.5
-24.46
-16.71
-13.7
-17.48
-26.49
-37.15
-45.87
-50.5
-50.45
-46.07
-38.13
-27.83
-17.36
-10.29
-11.1
-23.51
-48.38
-82.55
-118.26
-146.32
-159.07
-153.44
-132.15
-102.5
-73.5
-52.51
-43.35
-45.01
-53.67
-63.86
-69.95
-67.09
-52.24
-25.35
9.77
44.96
71.5
80.56
67.26
32.36
-17.97
-74.61
-128.49
-172.89
-205.95
-223.73
-225.22
-209.45
-175.67
-124.16
-57.02
21.25
103.88
178.36
240.09
281.32
297.66
289.03
259.67
216.23
165.25
111.07
48.77
-15.38
-82.89
-154.26
-228.02
-300.36
-365.75
-417.76
-450.68
-469.21
-463.94
-438.01
-396.38
-343.58
-282.1
-212.4
-134.91
-1.22
114.32
211.9
281.87
319.14
325.24
307.75
276.79
240.91
204.38
158.78
110.8
57.99
-0.35
-63.14
-127.84
-190.95
-247.97
-293.43
-328.01
-340.31
-328.71
-294.12
-240.18
-171.8
-95.18
-18.24
49.38
93.3
109.13
92.12
44.04
-28.09
-112.16
-194.03
-260.36
-301.09
-313.37
-296.43
-257.22
-204.95
-150.44
-100.31
-56.49
-17.16
20.91
59.32
99.74
142.17
188.04
235.21
280.86
319.12
342.15
343.73
322.9
286.33
246.68
219.8
213.6
230.46
265.83
311.94
362.29
414.06
467.5
510.36
553.81
589.03
607.28
601.43
569.18
513.85
442.86
364.24
283.75
205.59
128.15
52.4
-18.1
-77.34
-119.19
-140.45
-142.81
-132.64
-117.31
-106.51
-105.72
-116.84
-139.09
-170.76
-210.91
-260.1
-319.69
-388.92
-465.59
-542.33
-608.63
-653.98
-671.8
-662.02
-630.98
-588.5
-543.44
-501.9
-465.09
-431.33
-398.46
-365.72
-334.03
-304.77
-278.5
-254.2
-230.18
-204.74
-177.29
-148.64
-120.69
-95.45
-74.12
-56.72
-42.24
-29.19
-16.38
-3.36
9.44
21.05
30.47
37.15
41.18
43.15
43.83
43.93
43.82
43.57
42.99
41.9
40.14
37.73
34.84
31.94
29.73
29.17
31.24
36.68
45.69
57.75
71.71
86.2
100.08
113.03
125.6
138.95
154.21
171.82
191.07
210.36
227.87
242.44
254.19
264.7
276.36
291.54
311.81
337.39
366.97
397.71
425.5
445.65
454.11
448.91
431.26
405.66
378.7
356.78
343.6
338.31
335.76
328.22
308.21
271.05
215.84
144.62
60.54
-33.61
-134.96
-239.07
-338.3
-421.77
-477.97
-498.84
-482.99
-436.37
-370.23
-297.59
-230.02
-175.67
-138.6
-118.74
-112.15
-112
-110.3
-100.51
-79.68
-49.04
-12.59
25.55
63.33
100.92
139.34
178.36
215.28
245.72
265.49
272.71
268.68
257.12
242.8
229.52
218.94
210.56
202.72
193.77
183.11
171.36
159.86
149.82
141.69
135.02
128.78
121.8
113.21
102.61
90.16
76.23
61.29
45.66
29.59
13.43
-2.12
-15.99
-26.86
-33.53
-35.33
-32.39
-25.66
-16.69
-7.21
1.31
8.04
12.97
16.77
20.55
25.29
31.48
38.77
46.13
52.28
56.14
57.3
56.04
53.14
49.58
46.23
43.68
42.25
41.81
41.73
40.9
38.07
32.4
24.08
14.48
5.87
0.6
0.25
4.93
13.2
22.49
29.99
33.68
32.88
28.58
22.98
18.7
17.8
20.99
27.29
34.32
39.12
39.21
33.44
22.31
7.74
-7.76
-21.9
-33.3
-41.61
-47.21
-50.73
-52.56
-52.86
-51.73
-49.58
-47.26
-45.9
-46.49
-49.42
-54.12
-59.07
-62.23
-61.73
-56.5
-46.86
-34.49
-22.14
-12.94
-9.73
-14.27
-26.61
-44.65
-64.27
-80.26
-87.94
-84.92
-72.03
-53
-32.73
-15.24
-2.12
7.48
15.73
24.55
34.49
44.76
53.91
60.7
64.57
65.56
63.95
60.04
54.28
47.38
40.48
34.88
31.64
31.15
32.83
35.29
36.75
35.71
31.52
24.73
16.94
10.21
6.32
6.3
10.2
17.45
27.31
39.22
52.8
67.66
83.19
98.57
113.07
126.28
138.31
149.54
160.41
171.18
182.05
193.46
206.16
221.01
238.41
257.92
278.23
297.56
314.22
326.96
335.03
337.86
334.97
326
311.15
291.35
268.26
243.76
219.34
195.63
172.37
148.75
123.89
97.22
68.69
38.71
8.02
-22.54
-52.32
-81.03
-108.8
-136.13
-163.86
-193.05
-224.77
-259.58
-296.8
-334.04
-367.32
-391.94
-404
-401.77
-386.31
-360.96
-330.12
-297.71
-266.35
-237.32
-211.06
-187.89
-168.23
-152.49
-140.67
-132.19
-126.03
-121.07
-116.44
-111.71
-106.84
-102.01
-97.37
-92.99
-88.73
-84.34
-79.58
-74.29
-68.45
-62.26
-56.02
-50.11
-44.85
-40.4
-36.72
-33.61
-30.81
-28.02
-24.95
-21.33
-16.98
-11.82
-5.94
0.37
6.7
12.53
17.37
20.77
22.41
22.11
19.89
15.99
10.9
5.3
-0.1
-4.66
-7.97
-9.87
-10.46
-9.98
-8.75
-7.21
-5.82
-5.19
-5.98
-8.75
-13.66
-20.3
-27.51
-33.67
-37.21
-37.2
-33.75
-28.05
-21.96
-17.37
-15.66
-17.39
-22.39
-30.07
-39.6
-50.09
-60.6
-70.11
-77.63
-82.4
-84.08
-82.84
-79.26
-74.1
-67.99
-61.38
-54.46
-47.36
-40.28
-33.49
-27.27
-21.72
-16.7
-11.85
-6.7
-0.93
5.5
12.28
18.87
24.67
29.17
32.12
33.52
33.57
32.63
31.04
29.12
27.07
24.99
22.89
20.72
18.4
15.9
13.3
10.78
8.56
6.82
5.57
4.64
3.74
2.58
1.06
-0.74
-2.55
-4.12
-5.28
-6.03
-6.52
-6.97
-7.62
-8.73
-10.52
-13.13
-16.55
-20.54
-24.61
-28.06
-30.16
-30.36
-28.41
-24.42
-18.87
-12.43
-5.78
0.54
6.2
11.16
15.54
19.47
22.97
25.84
27.68
28.04
26.66
23.58
19.2
14.22
9.45
5.59
3.1
2.16
2.67
4.32
6.72
9.44
12.16
14.73
17.2
19.78
22.75
26.25
30.22
34.41
38.43
41.96
44.76
46.67
47.56
47.24
45.57
42.56
38.59
34.39
30.95
29.16
29.49
31.81
35.48
39.62
43.48
46.7
49.33
51.7
54.18
56.97
60.16
63.91
68.62
74.97
83.62
94.63
106.88
117.94
124.45
123.14
111.98
90.66
60.31
22.53
-21.34
-69.89
-120.28
-167.23
-202.97
-219.02
-209.26
-172.24
-111.51
-33.59
54.8
148.44
243.07
333.55
412.53
471.21
502.41
503.93
480.06
440.12
394.67
351.59
314.13
281.52
251.1
220.88
190.57
161.23
134.12
109.79
87.74
66.86
45.95
24.09
1.1
-22.79
-47.08
-71.24
-94.89
-117.89
-140.38
-162.69
-185.25
-208.41
-232.32
-256.79
-281.33
-305.41
-328.58
-350.71
-372.07
-393.23
-415.02
-438.73
-466.27
-499.77
-540.47
-586.91
-633.82
-672.51
-693.18
-688.38
-655.96
-599.89
-528.33
-450.49
-373.38
-300.48
-232.35
-167.98
-105.87
-43.97
20.37
89.82
165.14
243.05
315.59
371.9
401.9
399.88
366.55
308.76
237.38
164.54
101.53
57.64
39.54
50.56
89.33
149.18
218.39
282.43
327.48
343.79
327.72
281.43
211.72
128.04
41.23
-37.11
-95.32
-123.11
-113.93
-67.66
7.77
97.6
184.2
252.27
293.27
306.63
297.82
274.69
243.78
208.59
170.26
129.19
86.53
44.27
4.21
-33.57
-71.32
-112.66
-161.22
-218.9
-285.59
-359.26
-435.96
-509.99
-574.4
-622.52
-650.33
-658.43
-652.03
-638.59
-624.26
-610.97
-596.32
-576.06
-547.61
-512.12
-474.04
-438.21
-407.07
-379.52
-352.06
-321.43
-286.57
-249.3
-213.4
-182.91
-160.48
-146.53
-139.05
-134.32
-128.5
-118.89
-104.95
-88.17
-70.97
-55.3
-41.59
-28.82
-15.39
-0.41
15.75
31.67
45.82
57.54
67.42
76.86
87.25
99.27
112.37
125.24
136.5
145.45
152.51
158.99
166.49
176.12
187.96
201.07
214.03
225.78
236.3
246.7
258.81
274.31
293.97
317.23
342.64
368.41
393.36
417.39
441.35
466.66
495.07
528.34
567.89
614
664.47
713.98
754.5
777.32
776
748.87
699.66
635.91
566.06
496.69
431.3
370.76
314.69
262.74
214.73
170.28
128.22
86.77
44.27
-0.1
-45.88
-91.8
-136.23
-178.15
-217.61
-255.94
-295.79
-340.43
-392.37
-451.54
-513.84
-571.03
-612.72
-629.79
-617.75
-578.53
-519.63
-451.08
-381.6
-316.29
-256.03
-199.02
-142.82
-85.72
-26.67
35.52
102.53
175.72
254.2
333.36
404.94
459.14
488.04
488.62
463.69
420.33
366.76
309.35
251.32
193.11
134.09
73.99
13.34
-47.09
-107.15
-167.93
-231.65
-300.71
-376.19
-456.29
-535.24
-604.03
-652.72
-673.76
-664.79
-629.6
-576.47
-514.97
-452.56
-392.88
-336
-280.19
-223.88
-166.59
-108.75
-50.95
6.71
64.74
123.68
183.72
244.44
304.94
364.53
423.52
483.4
546.24
612.93
681.32
745.31
795.82
823.67
823.09
794.12
742.66
678.03
609.55
543.66
483.02
427.49
375.93
327.57
282.41
240.55
201.62
164.59
128.22
91.8
55.36
19.66
-14.38
-46.33
-76.62
-106.39
-137.15
-170.11
-205.65
-243.18
-281.32
-318.66
-354.51
-389.73
-426.77
-468.9
-518.46
-575.03
-634.5
-689.88
-733.73
-761.2
-771.83
-769.36
-759.38
-746.31
-731.45
-713.08
-688.06
-654.14
-610.85
-559
-499.38
-432.44
-359.51
-284.52
-214.51
-157.57
-119.05
-98.16
-87.32
-75.12
-51.34
-11.37
42.72
104.45
166.97
226.06
280.55
330.3
374.21
409.65
433.97
446.85
451.42
453.15
457.06
465.04
474.65
480.23
475.48
455.95
420.3
370.25
309.71
243.99
179.21
121.71
77.18
49.35
39.04
43.76
58.56
77.43
94.98
107.59
113.48
112.21
104.04
89.64
70.39
48.48
27.02
9.06
-3.58
-11.61
-18.52
-29.45
-48.69
-77.37
-112.37
-147.29
-175.1
-190.89
-193.56
-185.32
-170.01
-151.27
-131.54
-112.13
-93.9
-77.75
-64.62
-55.17
-49.33
-46.28
-44.63
-42.79
-39.23
-32.95
-23.81
-12.78
-1.82
6.76
11.35
11.74
9.36
6.5
5.07
5.48
6.53
6.13
2.68
-3.92
-12.1
-19.29
-23.24
-22.8
-18.27
-10.87
-2.08
6.96
15.51
23.03
29.02
33.04
34.94
35.23
34.93
35.34
37.51
41.81
47.81
54.53
60.75
65.58
68.67
70.22
70.78
70.94
71.13
71.58
72.38
73.6
75.31
77.47
79.83
81.94
83.27
83.63
83.24
82.62
82.22
82.03
81.39
79.32
75.06
68.52
60.4
51.95
44.58
39.36
36.85
36.92
38.97
42.18
45.86
49.65
53.62
58.02
62.97
68.13
72.68
75.56
76.19
74.81
72.44
70.36
69.35
69.2
69
67.82
65.53
62.81
60.57
59.14
58.13
57.18
56.88
59.25
66.64
79.74
95.85
108.74
110.56
94.82
59.35
7.42
-52.77
-110.35
-154.02
-174.43
-165.96
-128.59
-69.12
-0.12
64
112.56
143.18
162.25
180.5
205.98
239.1
272.55
296.38
304.66
299.17
287.71
278.53
274.64
271.92
262.46
240.15
204.94
162.76
121.7
87.33
59.93
35.29
7.61
-26.88
-68.34
-113.48
-157.65
-197.15
-230.96
-261.28
-292.71
-330.05
-375.87
-428.63
-482.22
-527.38
-554.62
-557.32
-534
-488.55
-428.49
-362.29
-296.8
-235.8
-180.2
-128.86
-79.54
-29.44
24.11
82.6
144.81
205.78
257.34
290.52
299.04
282.27
245.64
198.5
150.27
106.9
69.62
35.89
1.53
-37.31
-83.03
-136.15
-194.96
-255.16
-310.08
-351.89
-373.96
-373.17
-350.72
-311.47
-261.79
-207.4
-152.16
-98.27
-46.96
0.86
44.84
85.67
125.37
167.15
214.57
270.41
335.49
407.66
481.16
547.45
597.14
622.92
622.13
597.72
556.96
508.48
459.2
412.4
368.32
325.85
284.49
245.22
209.7
178.72
151.13
124.27
95.52
64.08
31.65
1.66
-22.65
-40.23
-52.98
-65.08
-81.14
-104.36
-135.44
-172.69
-213.08
-253.57
-291.92
-327.04
-358.91
-388.28
-416.58
-445.94
-479.05
-518.4
-564.82
-615.98
-665.39
-703.45
-720.18
-708.89
-668.97
-606.1
-530.02
-450.56
-374.38
-303.61
-236.99
-172.03
-107.01
-41.7
22.99
85.58
144.42
197.6
243.02
278.82
304.09
319.09
325.31
324.87
319.83
311.8
301.98
291.39
280.91
271.14
262.01
252.59
241.42
227.09
209.11
188.31
166.72
146.79
130.41
118.11
108.75
99.84
88.19
70.62
44.45
8.02
-38.44
-91.9
-146.4
-194.11
-227.74
-243.19
-241.15
-226.79
-207.49
-190.06
-178.78
-175.38
-180.32
-194.34
-218.9
-255.25
-302.95
-358.87
-417.58
-472.77
-518.94
-552.41
-571.43
-575.81
-566.48
-545.05
-513.61
-474.66
-430.86
-384.68
-338.12
-292.56
-248.87
-207.37
-167.91
-130
-92.96
-56.21
-19.53
16.85
52.49
87.03
120.36
152.56
183.6
213.18
240.61
265
285.42
300.99
310.84
314.15
310.36
299.61
283.03
262.83
241.86
222.95
208.27
198.92
195.07
196.19
201.36
209.22
218.04
225.84
230.85
232.16
230.07
226.15
222.54
221.01
222.16
225.2
228.42
230.1
229.31
226.15
221.43
215.97
209.89
202.2
190.93
173.73
148.71
115.37
75.19
31.77
-9.73
-43.6
-65.09
-72.03
-65.94
-52.32
-39.45
-35.8
-46.86
-72.73
-107.83
-143.18
-170.34
-184.85
-187.58
-183
-175.8
-168.12
-158.91
-145.75
-127.37
-105.16
-82.58
-63.1
-48.27
-37.39
-28.67
-20.94
-14.47
-10.47
-9.69
-11.46
-13.92
-15.05
-13.86
-10.69
-6.51
-2
2.82
8.58
16.12
26.27
39.91
57.8
80.03
105.21
129.92
149.45
159.92
160.55
154.8
149.24
150.35
161.08
179.22
198.44
211.9
216.07
212.54
206.8
204.62
208.48
216.58
224.91
230.9
235.88
244.54
261.29
286.22
313.34
332.42
333.75
312.7
271.63
218.08
160.78
105.9
55.47
8.54
-36.74
-81.29
-124.86
-166.97
-208.15
-250.72
-298.03
-352.46
-412.99
-473.69
-524.51
-554.34
-555.15
-525.32
-470.19
-399.73
-324.4
-251.41
-183.29
-118.7
-54.84
10.57
78.31
147.65
216.82
283.32
344.22
396.45
437.55
466.27
482.55
487.31
481.81
467.38
445.63
418.74
389.36
360.1
332.49
306.59
281.31
255.33
228.04
199.82
171.58
144
117.21
90.78
64.21
37.36
10.53
-15.73
-40.86
-64.38
-85.73
-104.07
-118.49
-128.37
-133.84
-135.97
-136.63
-138.04
-142.22
-150.66
-163.97
-181.91
-203.57
-227.75
-253.58
-281.19
-312
-348.15
-390.78
-438.04
-483.9
-518.83
-532.52
-517.64
-472.65
-402.55
-317.08
-227.62
-144.12
-73.36
-18.84
18.52
39.67
47.12
44.63
36.73
27.66
20.39
16.11
14.44
14.31
14.46
14.18
13.44
12.94
13.82
17.08
22.81
29.55
34.13
32.26
19.71
-6.37
-46.37
-97.64
-154.77
-210.49
-256.86
-286.79
-295.72
-283.12
-253.22
-214.15
-175.42
-144.62
-124.96
-114.83
-109.53
-104.08
-95.98
-86.09
-77.39
-72.48
-71.66
-72.72
-72.5
-69.01
-61.91
-52.99
-45.21
-41.29
-42.43
-47.96
-56.17
-65.31
-74.22
-81.22
-85.45
-87.69
-90.3
-95.72
-104.88
-116.48
-127.41
-133.79
-130.31
-113.65
-84.35
-46.66
-5.73
35.14
75.23
115.68
158.46
208.39
269.58
342.67
423.49
504.59
577.6
635.06
672.19
671.87
626.38
545.49
453.24
371.73
310.02
266.15
234.51
210.99
193.44
183.65
182.59
187.87
194.08
195.87
191.31
181.84
170.84
160.66
154.5
153.75
156.81
159.61
157.93
149.24
132.34
112.13
91.26
72.52
57.39
45.43
34.64
23.09
10.17
-3.29
-15.56
-25.65
-32.21
-34.56
-33.09
-29.21
-24.47
-19.78
-15.19
-10.07
-4.17
2.97
11.33
20.08
27.71
32.47
33.1
29.17
21.29
10.35
-2.49
-16.44
-31.55
-48.69
-69.18
-94.09
-123.55
-156.56
-191.54
-226.65
-260.58
-293.04
-324.67
-356.77
-391.06
-429.47
-473.63
-523.98
-578.35
-631.26
-674.5
-699.45
-700.19
-675.99
-631.73
-575.97
-517.66
-463.2
-415.33
-373.9
-337.76
-306.32
-279.85
-258.7
-242.39
-229.31
-217.26
-204.54
-190.67
-176.4
-163.4
-153.18
-146.34
-142.38
-139.92
-137.38
-133.65
-128.51
-122.58
-116.91
-112.34
-109.06
-106.47
-103.44
-98.74
-91.52
-81.59
-69.42
-55.85
-41.73
-27.6
-13.57
0.57
15.11
30.19
45.57
60.67
74.72
86.99
97.28
105.79
112.95
119.33
125.41
131.49
137.53
143.21
148.12
152.26
155.97
159.82
164.42
170.13
176.82
183.77
189.82
193.85
195.84
196.65
197.72
200.72
207.06
217.46
231.72
248.95
267.95
289.33
314.05
342.76
375.63
412.99
455.81
505.37
561.94
623.27
686.49
744.99
789.47
811.2
806.26
777.38
732.23
679.71
626.47
580
543.49
515.65
492.15
469.06
444.52
418.23
390.1
359.9
333.4
315.51
307.56
306.91
309.87
314.16
319.08
324.56
293.65
209.11
80.52
-60.52
-183.09
-272
-326.72
-353.81
-361.41
-355.61
-337.79
-307.87
-268.1
-225.9
-188.79
-161.17
-144.17
-137.83
-139.75
-144.22
-146.93
-147.07
-150.9
-164.4
-189.52
-223.71
-262.53
-301.85
-336.32
-361.93
-377.39
-389.95
-406.4
-429.24
-456.12
-483.03
-507.02
-525.75
-538.04
-544.4
-554.43
-576.25
-612.48
-659.65
-712.34
-767.16
-823.62
-883.44
-898.49
-840.29
-708.48
-529.49
-334.5
-143.64
33.18
189.06
316.65
408.95
455.6
454.83
414.53
351.83
283.97
224.3
181.68
161.13
163.92
181.87
203.7
217.65
214.11
186.62
135.57
68.54
-0.23
-54.58
-84.87
-88.58
-70.24
-38.65
-3.48
26.97
50.44
68.52
84.5
102.4
127.43
165.18
220.32
294.25
382.33
477
566.65
625.78
631.6
577.93
481.35
371.35
282.27
216.79
166.57
119.82
65.6
-1.26
-78.63
-160.05
-236.81
-300.06
-343.38
-360.57
-350.34
-317.93
-272.54
-225.94
-190.23
-174.35
-182.64
-215.35
-265.97
-324.25
-378.66
-417.35
-431.18
-416.12
-372.31
-304.56
-222.33
-136.54
-58.11
4.2
46.08
68.72
78.94
89.97
116.17
166.07
238.99
324.95
408.84
476.39
519
520.34
475.06
394.65
301.78
216.2
145.64
88.26
39.61
-3.03
-38.33
-66.7
-90.39
-115.07
-148.11
-194.12
-251.47
-312.89
-368.87
-407.32
-420.7
-408.56
-378.13
-340.9
-306.95
-280.91
-261.71
-245.23
-227.57
-206.91
-183.56
-159.88
-138.6
-121.07
-106.56
-93.16
-79.11
-63.8
-48.04
-32.95
-19.84
-9.48
-1.39
6.13
15.3
27.86
44.35
63.86
84.96
106.22
126.62
146.19
165.76
186.31
208.58
233.19
260.97
293.77
332.62
375.76
417.32
448.11
458.94
444.84
407.42
354.13
295.67
240.16
191.4
150.04
116.71
94.31
87.22
98.3
126.86
170
222.28
278.39
334.53
387.18
431.39
460.24
465.91
443.47
394.64
324.26
239.07
146.24
52.92
-33.48
-105.78
-158.82
-204.41
-249.22
-297.43
-349.17
-401.04
-448.27
-486.3
-510.3
-522.94
-527.53
-524.65
-514.85
-498.52
-476.02
-449.51
-421.05
-392.63
-366.3
-342.63
-319.74
-296.22
-271.42
-245.66
-220.13
-196.19
-175.13
-158.06
-144.87
-133.76
-123.21
-112.23
-100.63
-88.91
-77.74
-67.78
-59.59
-52.93
-46.7
-40.01
-32.42
-24.12
-15.83
-8.33
-2.25
2.21
5.65
9.27
14.15
20.86
29.2
38.29
47.1
54.87
61.6
68.15
75.8
85.65
98.04
112.29
126.96
140.58
152.31
162.37
171.96
182.75
196.18
213.03
233.3
256.25
280.42
303.33
321.31
329.87
324.91
304.55
270.9
230.29
191.53
162.74
148.08
146.25
151.74
157.92
160.31
157.93
152.43
145.76
138.36
128.98
116.42
101.42
86.99
76.78
72.23
70.5
64.74
46.85
11.21
-42.55
-109.37
-180.62
-247.09
-301.43
-339.07
-358.1
-358.3
-340.42
-305.71
-255.94
-194.08
-125.41
-58.24
-3.41
28.43
30.96
5.79
-36.72
-80.68
-110.66
-117.67
-101.95
-71.27
-36
-3.92
22.28
44.32
65.46
87.81
111.47
135.42
159.01
182.79
208.35
237.14
269.51
304.35
339.41
372.51
402.91
432.05
463.07
498.95
539.88
581.44
614.97
630.22
619.44
580.76
519
443.65
364.91
290.18
222.4
160.83
103.17
47.55
-6.79
-59.74
-111.04
-160.45
-207.48
-250.93
-288.9
-319.43
-341.06
-353.51
-357.76
-355.58
-348.98
-339.65
-328.61
-316.23
-302.31
-286.38
-268.01
-247.14
-224.23
-200.21
-176.18
-153.09
-131.52
-111.66
-93.48
-77.01
-62.49
-50.33
-40.91
-34.33
-30.31
-28.17
-27.06
-26.22
-25.18
-24.05
-23.58
-25.14
-30.31
-40.08
-53.97
-69.44
-82.23
-87.56
-81.83
-63.99
-35.91
-1.87
32.74
62.81
84.55
96.08
97.54
90.79
78.8
64.88
51.75
41
32.83
26.45
20.7
14.68
8.01
0.76
-6.68
-13.73
-19.68
-23.89
-26.17
-27.04
-27.78
-29.99
-34.88
-42.74
-52.72
-63.11
-72.16
-78.9
-83.47
-86.98
-91.02
-96.97
-105.7
-117.56
-132.46
-149.9
-168.73
-187
-202.08
-211.41
-213.31
-207.61
-195.52
-178.81
-158.88
-136.23
-110.79
-82.79
-53.47
-25.02
0.32
21.39
38.72
54.34
70.72
89.64
111.44
135.24
159.47
182.72
204.15
223.53
241.09
257.19
272.2
286.41
300.03
313.2
326.2
339.54
353.94
369.9
387.01
403.45
416.06
421.27
416.51
401.45
378.32
351
323.4
297.85
274.39
251.35
226.71
199.56
170.7
142.29
116.65
95.05
77.01
60.46
42.76
21.89
-2.36
-28.22
-52.64
-72.63
-86.91
-96.47
-104.29
-114.07
-128.39
-147.74
-170.79
-195.48
-220.07
-243.21
-263.49
-278.85
-287.15
-287.78
-283.21
-278.93
-281.26
-293.58
-313.11
-330.54
-333.45
-312.1
-264.69
-199.2
-130.55
-74.96
-44.16
-42.14
-65.83
-108.64
-164.29
-228.54
-298.3
-368.51
-430.17
-472.04
-485.2
-468.59
-431.48
-390.6
-362.65
-356.18
-367.52
-383.03
-387.13
-369.77
-330.37
-276.37
-217.92
-162.21
-111.22
-62.58
-12.63
39.49
92.25
142.99
189.82
232.32
270.66
304.54
332.2
350.41
353.08
334.82
293.15
230.25
153.24
72.46
-1.23
-59.3
-97.99
-122.05
-140.68
-163.47
-196.24
-238.88
-286.53
-332.48
-370.97
-381.84
-353.03
-283.2
-184.03
-74.57
28.78
117.31
188.93
244.91
287.43
315.86
329.66
330
319.46
302.63
284.21
267.65
254.57
244.94
235.52
223.11
205.38
180.97
151.3
119.27
88.01
59.97
36.5
16.44
-2.03
-20.63
-42.43
-69.4
-102.85
-142.69
-186.97
-231.41
-270.68
-299.69
-304.05
-280.88
-237.39
-188.03
-147.06
-122.4
-113.31
-112.92
-112.81
-107.34
-97.91
-88.11
-82.05
-81.2
-83.98
-86.37
-83.28
-70.61
-46.67
-13.73
25.26
64.57
100.25
129.33
149.48
159.31
159.43
153.85
149.08
153.11
171.54
204.52
244.51
278.3
292.7
280.68
245.02
196.42
148.23
109
78.28
47.09
3.98
-57.25
-132.74
-209.3
-270.94
-306.76
-315.64
-305.27
-287
-269.33
-254.49
-239.14
-218.54
-190.78
-158.29
-126.22
-99.21
-78.66
-61.89
-44.16
-21.4
7.48
40.16
71.84
97.87
115.49
124.63
127.43
126.77
125.27
125.05
127.9
135.24
147.33
162.05
174.71
179.79
173.81
157.46
135.4
113.39
94.86
79.38
64.15
47.89
33.36
26.21
30.55
44.16
57.63
58.52
38.78
0.11
-45.93
-83.47
-100.19
-92.16
-64.01
-24.26
19.88
65.58
113.46
164.53
216.48
262.71
294.5
304.82
291.84
259.88
217.62
174.41
136.63
106.18
81.87
62.41
49.03
46.4
60.88
97.16
154.92
227.24
301.8
364.44
403.59
413.75
396.69
360.14
314.43
268.69
228.12
193.81
164.26
137.87
114.34
94.87
80.67
71.52
65.14
57.77
45.71
26.71
0.56
-30.95
-65.21
-99.66
-132.81
-164.35
-194.83
-225.16
-256.17
-288.39
-322.1
-357.26
-393.31
-428.81
-461.09
-486.55
-501.32
-502.59
-489.68
-464.45
-430.79
-393.42
-356.5
-322.74
-293.19
-267.6
-245.08
-224.56
-204.99
-185.27
-164.1
-139.64
-109.35
-70.4
-21.16
37.54
100.87
160.37
206.07
229.5
226.27
196.78
145.14
77.44
0.4
-78.75
-152.15
-211.82
-251.39
-268.43
-265.74
-250.51
-231.45
-215.28
-204.56
-197.86
-191.67
-182.64
-169.07
-150.93
-128.98
-103.97
-76.21
-45.79
-12.89
22.24
59.19
97.86
138.22
179.84
221.28
259.81
291.85
314.13
324.92
324.79
316.42
303.51
289.46
276.44
265.24
255.72
247.47
240.11
233.22
226.08
217.6
206.67
192.61
175.6
156.75
137.78
120.46
105.96
94.52
85.47
77.68
70.08
62.16
54.09
46.43
39.71
34.05
29.15
24.51
19.76
14.92
10.34
6.45
3.49
1.39
-0.19
-1.65
-3.36
-5.55
-8.34
-11.67
-15.36
-19.06
-22.32
-24.73
-26.11
-26.57
-26.51
-26.44
-26.77
-27.72
-29.22
-31.01
-32.7
-33.86
-34.09
-33.09
-30.78
-27.35
-23.28
-19.15
-15.49
-12.56
-10.21
-8.04
-5.6
-2.69
0.58
3.79
6.49
8.39
9.45
9.84
9.86
9.78
9.79
9.95
10.16
10.11
9.4
7.54
4.16
-0.81
-7.04
-13.79
-20.06
-24.85
-27.41
-27.47
-25.35
-21.81
-17.9
-14.51
-12.18
-10.9
-10.27
-9.74
-8.92
-7.76
-6.46
-5.34
-4.65
-4.39
-4.34
-4.25
-3.91
-3.29
-2.48
-1.63
-0.88
-0.28
0.27
0.98
2.19
4.25
7.42
11.73
16.91
22.42
27.64
32.05
35.48
38.09
40.35
42.82
46.01
50.32
56.02
63.07
71.07
79.12
86.11
91.13
94.05
95.74
97.65
101.17
106.78
113.83
120.96
126.98
131.68
136.03
141.66
149.99
161.42
175.24
189.98
204.23
217.26
229.24
241.17
254.52
270.79
290.88
314.43
339.35
361.86
377.37
381.85
373.25
352.24
321.7
285.57
247.27
208.78
170.62
132.56
94.36
56.18
18.67
-17.2
-50.13
-78.53
-100.77
-115.74
-123.41
-125.14
-123.24
-120.14
-117.51
-115.7
-113.95
-110.95
-105.56
-97.3
-86.5
-74.22
-61.98
-51.53
-44.62
-42.73
-46.93
-57.76
-75.16
-98.4
-126.12
-156.36
-187.06
-216.57
-244.22
-270.76
-298.4
-330.2
-368.77
-414.5
-464.05
-510.51
-544.84
-559.12
-549.91
-519.7
-475.78
-426.59
-378.01
-331.64
-285.64
-236.74
-182.33
-121.39
-54.15
18.14
93.13
166.73
232.78
283.53
312.9
319.01
305.03
277.99
245.91
215.25
189.95
171.19
156.53
143.03
128.48
112.07
94.14
75.44
56.87
40.01
25.38
9.14
-12.57
-41.93
-78.05
-117.7
-157.41
-194.83
-227.93
-257.12
-288.82
-327.51
-373.36
-421.81
-466.54
-503.82
-533.88
-558.19
-581.5
-615.43
-668.47
-743.71
-838.26
-945.88
-1060.3
-1175.75
-1283.47
-1324.12
-1255.09
-1065.82
-789.22
-483.42
-201.01
28.63
185.93
291.77
365.92
413.53
434.9
430.99
408.09
377.33
349.04
330.23
325.66
332.72
340.65
339.84
325.7
300.62
271.72
246.39
229.29
223.17
225.27
227.98
225.2
214.61
198.64
182.46
170.81
165.91
168.31
175.09
181.42
184.29
183.68
182.38
184.23
191.79
205.07
222.11
239.02
251.95
259.37
262.75
266.18
274.89
292.9
321.09
356.29
391.06
415.83
422.11
405.86
369.81
323.27
279.47
250.73
243.67
256.64
280.39
301.68
308.03
291.93
253
197.68
137.04
83.67
48.57
38.62
55.02
93.49
145.87
203.1
258.13
307.25
349.35
383.7
408.31
419.69
414.92
394.07
361.39
323.95
288.41
257.84
230.63
201.87
166.61
123.03
73.33
22.92
-22.1
-57.01
-79.79
-91.16
-93.89
-91.89
-89.1
-88.76
-92.81
-101.73
-115.09
-132.61
-155.18
-184.8
-223.54
-271
-322.78
-369.71
-399.81
-401.93
-369.68
-304.05
-213.31
-111.07
-12.3
69.18
124.47
150.84
151.27
132.62
102.68
68.62
34.51
2.05
-30.61
-65.49
-103.25
-142.57
-180.6
-214.02
-239.16
-254.8
-261.33
-264.16
-269.81
-283.54
-307.6
-340.34
-377.77
-414.12
-446.81
-474.97
-503.17
-535.74
-574.36
-617.2
-659.49
-696.41
-723.53
-741.68
-726.62
-663.41
-551.24
-407.05
-258.09
-127.75
-39.82
11.91
37.35
46.66
45.24
37.74
32.04
33.31
43.99
62.94
88.12
114.24
137.33
152.54
157.36
152.22
140.39
127.86
120.97
125.61
142.23
167.93
195.82
219.57
235.8
245.11
251.91
261.61
279.06
305.21
338.84
376.07
411.73
439.8
454.2
451.07
431.06
401.41
373.75
360.55
368.99
397
433.53
463.26
473.76
460.58
428.18
385.88
342.8
303.94
269.64
237.78
206.52
175.78
146.49
119.02
91.86
61.72
25.15
-19.75
-72.15
-128.95
-185.97
-239.79
-289.15
-335.56
-382.81
-435.29
-495.54
-562.11
-628.7
-685.51
-722.43
-732.86
-716.25
-678.14
-627.65
-573.77
-522.46
-475.72
-432.84
-392.48
-354.28
-319.09
-288.04
-261.42
-238.22
-216.66
-195.24
-173.49
-152.16
-132.81
-116.82
-104.48
-94.81
-85.88
-75.71
-63.11
-48.2
-32.29
-17.08
-3.75
7.72
18.6
30.88
46.33
65.7
88.4
112.82
137.22
160.57
182.83
204.85
227.66
251.84
277.32
304.04
332.16
361.56
391.14
417.87
436.8
442.62
432
405.38
366.89
322.47
277.36
234.7
196.14
164.03
142.71
137.73
152.57
184.85
224.92
257.89
268.75
247.74
193.53
113.04
18.55
-76.1
-158.94
-221.35
-258.54
-269.49
-256.85
-226.34
-185.76
-143.71
-107.63
-82.44
-69.44
-66.51
-68.77
-69.98
-64.16
-47.31
-18.84
18.34
58.68
96.01
125.37
144.27
152.33
150.19
138.46
117.6
89.07
56.17
24.19
-1.15
-16
-20.02
-16.2
-8.98
-1.77
4.55
11.01
18.98
28.47
38.01
45.7
50.52
52.97
54.59
57.07
61.85
70.21
83.53
102.59
126.62
152.49
174.99
188.48
189.35
177.56
156.73
132.57
110.55
94.3
85.18
82.95
86.65
94.86
105.4
114.96
119.33
114.6
98.96
73.76
43.54
14.16
-10.07
-28.72
-45.48
-65.77
-92.78
-124.38
-152.71
-167.21
-159.25
-125.95
-71.08
-2.74
70.37
141.97
208.94
270.09
324.34
369.73
403.8
424.86
432.99
430.15
419.36
403.45
384.09
361.42
334.41
302.04
264.58
224.44
186.07
154.76
134.6
126.82
129.19
136.85
144.25
147.01
143.08
132.72
117.65
100.01
81.66
63.83
47.21
31.91
17.52
3.13
-12.38
-29.98
-50.09
-72.42
-96.16
-120.29
-144.19
-167.86
-192.07
-218
-246.82
-279.05
-314.23
-351.11
-387.93
-423.22
-456.25
-487.24
-517.26
-548.1
-582.01
-621.09
-666.08
-715
-762.33
-799.76
-818.52
-812.64
-781.37
-729.59
-665.7
-598.38
-533.62
-473.76
-418.46
-366.69
-318.23
-273.81
-234.19
-198.97
-166.37
-133.88
-99.66
-63.47
-26.79
7.8
38.05
63.04
83.65
102.09
120.96
142.31
167.15
195.5
226.56
258.89
290.31
317.94
338.54
349.2
348.16
335.1
310.76
276.33
233.13
183.04
129.28
76.93
32.44
2.01
-10.42
-4.57
16.16
46.1
79.07
109.94
135.12
152.49
160.96
160.14
150.33
132.41
107.81
78.34
46.16
14.08
-14.4
-35.31
-45.14
-41.99
-26.6
-2.55
24.66
49.41
67.85
78.92
84.31
87.18
90.46
95.46
101.42
106.17
107.31
103.57
95.46
85.19
75.7
69.47
67.59
69.53
73.54
77.53
79.87
79.82
77.4
73.04
67.06
59.48
50.08
38.92
26.85
15.89
8.86
8.56
16.53
32.14
52.59
73.68
91.28
102.64
106.94
104.89
97.8
87.07
74.28
61.82
52.78
49.98
54.41
64.09
74.3
79.3
75.01
60.48
38.35
13
-12.01
-35.64
-59.54
-86.79
-119.83
-158.57
-199.88
-237.85
-266.27
-281.06
-281.41
-269.32
-247.74
-218.83
-183.32
-141.39
-92.9
-39.48
15.63
68.92
118.52
164.99
210.39
256.25
301.78
345.34
383.64
412.31
427.16
425.15
405.42
369.6
321.65
267.77
217.75
181.32
164.78
168.36
186.44
209.81
229.14
238.2
222.65
