0
0
0
0
0
0
0
0
0
0
0
0.01
0.01
0
-0.03
-0.05
-0.05
0
0.13
0.36
0.66
1.01
1.37
1.72
2.06
2.4
2.79
3.24
3.8
4.42
5.06
5.66
6.2
6.68
7.15
7.68
8.31
9.14
10.09
11.04
11.88
12.56
13.14
13.76
14.65
15.96
17.91
20.32
22.9
25.38
27.58
29.57
31.68
34.32
37.81
42.54
48.15
54.1
59.83
64.97
69.58
74.14
79.34
85.71
93.76
103
112.62
121.73
129.77
136.75
143.3
150.75
157.77
166.64
177.95
191.79
206.97
220.57
228.25
225.36
208.53
176.87
132.76
80.05
23.07
-34.94
-92.44
-149.16
-205.23
-260.37
-313.74
-363.87
-409.83
-450.91
-486.5
-515.74
-537.23
-549.22
-549.96
-538.37
-514.21
-478.67
-433.88
-382.45
-327.02
-269.84
-212.63
-156.66
-102.95
-52.37
-5.9
35.58
71.43
101.35
125.5
144.38
158.69
169.15
176.37
180.75
182.57
182.07
179.51
175.23
169.65
163.18
156.15
148.81
141.3
133.69
126.02
118.33
110.69
103.16
95.8
88.68
81.83
75.25
68.95
62.95
57.25
51.86
46.78
42.03
37.59
33.45
29.61
26.07
22.81
19.83
17.11
14.67
12.48
10.54
8.83
7.35
6.07
4.97
4.05
3.27
2.62
2.09
1.65
1.3
1.01
0.79
0.61
0.48
0.37
0.3
0.24
0.21
0.19
0.18
0.19
0.21
0.23
0.26
0.29
0.33
0.38
0.42
0.47
0.51
0.56
0.61
0.66
0.72
0.79
0.88
0.96
1.04
1.09
1.11
1.12
1.13
1.18
1.28
1.43
1.63
1.85
2.05
2.24
2.43
2.63
2.88
3.22
3.65
4.13
4.61
5.06
5.44
5.78
6.15
6.63
7.27
8.08
8.98
9.83
10.51
10.97
11.26
11.57
12.1
13
14.26
15.7
16.95
17.7
17.71
16.99
15.73
14.22
12.64
10.92
8.75
5.63
1.15
-4.74
-11.68
-18.94
-25.7
-31.37
-35.7
-38.91
-41.44
-43.78
-46.32
-49.37
-53.11
-57.36
-61.25
-63.2
-61.26
-53.99
-41.31
-24.95
-7.88
6.72
16.81
22.09
23.73
23.44
22.52
21.42
19.96
17.89
15.43
13.22
11.99
11.97
12.8
13.62
13.57
12.23
9.87
7.32
5.58
5.38
6.81
9.47
12.57
15.37
17.44
18.59
18.89
18.47
17.48
16.04
14.31
12.4
10.35
8.14
5.78
3.36
1.15
-0.54
-1.52
-1.86
-1.84
-1.9
-2.17
-2.79
-3.75
-5.02
-6.57
-8.42
-10.59
-13.02
-15.6
-18.23
-20.92
-23.7
-26.6
-29.47
-31.98
-33.67
-34.03
-32.78
-29.88
-25.67
-20.81
-16.1
-12.33
-10.1
-9.69
-11.1
-14.08
-18.25
-23.21
-28.54
-33.74
-38.33
-41.9
-44.18
-45.06
-44.55
-42.6
-39.08
-33.79
-26.59
-17.59
-7.2
3.93
15.05
25.44
34.42
41.43
46
47.93
47.37
44.94
41.61
38.48
36.47
36.05
37.15
39.26
41.66
43.65
44.75
44.8
43.89
42.33
40.55
38.98
37.88
37.28
36.92
36.35
35.14
32.95
29.8
25.87
21.54
17.11
12.76
8.51
4.25
-0.02
-4.16
-7.81
-10.57
-12.14
-12.49
-11.97
-11.17
-10.73
-10.96
-11.79
-12.72
-13.07
-12.33
-10.35
-7.42
-4.01
-0.63
2.48
5.19
7.49
9.3
10.44
10.75
10.19
9
7.61
6.48
5.94
6.03
6.52
7.01
7.11
6.57
5.34
3.6
1.65
-0.24
-1.85
-3.13
-4.21
-5.25
-6.5
-8.18
-10.47
-13.45
-17.02
-20.87
-24.48
-27.23
-28.51
-27.92
-25.36
-21.09
-15.57
-9.45
-3.36
2.21
6.9
10.55
13.12
14.66
15.27
15.08
14.22
12.9
11.3
9.64
8.14
6.89
5.93
5.18
4.51
3.81
2.99
2.02
0.93
-0.26
-1.52
-2.91
-4.5
-6.35
-8.49
-10.92
-13.6
-16.44
-19.3
-21.86
-23.63
-24.01
-22.46
-18.82
-13.41
-7.01
-0.59
4.99
9.3
12.33
14.34
15.6
16.26
16.28
15.57
14.14
12.15
9.9
7.71
5.83
4.41
3.42
2.73
2.14
1.49
0.67
-0.24
-1.15
-1.96
-2.75
-3.76
-5.29
-7.64
-10.84
-14.69
-18.78
-22.6
-25.71
-27.74
-28.46
-27.75
-25.53
-21.87
-16.93
-11.04
-4.64
1.71
7.49
12.23
15.67
17.71
18.43
18.06
16.88
15.17
13.14
10.99
8.85
6.83
4.97
3.28
1.7
0.17
-1.38
-2.95
-4.48
-5.93
-7.27
-8.58
-10.06
-11.93
-14.34
-17.26
-20.45
-23.47
-25.84
-27.06
-26.75
-24.67
-20.82
-15.45
-9.03
-2.18
4.45
10.35
15.21
18.89
21.37
22.66
22.82
22
20.42
18.39
16.18
13.93
11.72
9.56
7.53
5.81
4.59
4.02
4.02
4.35
4.63
4.61
4.12
3.25
2.12
0.77
-0.87
-3.05
-5.97
-9.67
-13.96
-18.4
-22.42
-25.51
-27.21
-27.27
-25.62
-22.34
-17.67
-11.97
-5.73
0.56
6.43
11.53
15.66
18.73
20.85
22.12
22.7
22.63
21.89
20.5
18.55
16.3
14.1
12.31
11.08
10.31
9.74
9.02
7.91
6.38
4.57
2.65
0.76
-1.08
-2.91
-4.84
-6.95
-9.38
-12.2
-15.46
-19.07
-22.73
-25.98
-28.18
-28.75
-27.29
-23.72
-18.3
-11.61
-4.36
2.73
9.07
14.26
18.16
20.76
22.23
22.75
22.53
21.77
20.65
19.34
17.96
16.63
15.38
14.23
13.21
12.37
11.73
11.26
10.85
10.32
9.46
8.15
6.38
4.24
1.87
-0.63
-3.27
-6.11
-9.24
-12.7
-16.4
-20.19
-23.83
-27.08
-29.7
-31.42
-31.98
-31.11
-28.65
-24.62
-19.31
-13.23
-7.1
-1.61
2.69
5.52
6.92
7.09
6.36
5.02
3.25
1.04
-1.69
-5.05
-9.1
-13.72
-18.6
-23.28
-27.32
-30.53
-33.11
-35.53
-38.45
-42.38
-47.46
-53.46
-59.86
-66.07
-71.72
-76.73
-81.3
-85.91
-91.33
-98.35
-107.48
-118.13
-127.97
-132.89
-127.79
-108.33
-72.52
-21.68
39.91
106.34
171.65
231.01
281.02
319.59
345.71
359.47
362.3
356.86
346.47
334.09
321.57
309.22
296.31
281.64
264.19
243.23
218.27
189.04
155.68
118.88
80.05
40.92
3.02
-32.78
-66.55
-98.85
-130.21
-160.71
-189.8
-216.69
-240.7
-261.61
-279.69
-295.68
-310.68
-326.09
-343.38
-363.69
-387.15
-412.37
-436.31
-454.77
-463.34
-458.61
-439.04
-405.38
-360.12
-306.76
-248.75
-188.61
-127.5
-65.2
-0.75
66.43
135.43
203.16
264.57
313.95
346.67
360.67
357.03
339.34
312.41
280.77
247.77
215.5
185.14
157.37
132.55
110.66
91.15
73.12
55.75
38.81
22.87
9.18
-0.84
-6.32
-7.28
-4.78
-0.5
3.85
7.1
8.89
9.5
9.52
9.4
9.34
9.21
8.79
7.92
6.55
4.78
2.75
0.61
-1.6
-3.87
-6.26
-8.73
-10.99
-12.44
-12.26
-9.74
-4.69
2.23
9.53
15.39
18.23
17.31
12.89
5.99
-2.13
-10.39
-18.06
-24.69
-29.82
-32.88
-33.35
-30.96
-25.95
-19.06
-11.35
-3.88
2.59
7.68
11.33
13.65
14.76
14.75
13.7
11.78
9.35
6.83
4.65
3.06
2.07
1.48
1
0.39
-0.47
-1.53
-2.69
-3.86
-5.06
-6.39
-8.01
-10.07
-12.6
-15.59
-18.91
-22.37
-25.71
-28.58
-30.58
-31.33
-30.63
-28.55
-25.4
-21.59
-17.32
-12.42
-6.45
0.97
9.74
18.97
27.21
32.9
35.01
33.34
28.49
21.45
13.15
4.27
-4.8
-13.63
-21.74
-28.62
-34.05
-38.34
-42.2
-46.48
-51.73
-57.91
-64.41
-70.48
-75.67
-80.15
-84.6
-89.96
-96.88
-105.33
-114.48
-122.62
-127.44
-126.38
-117.31
-99.2
-72.75
-40.4
-5.65
27.97
58.09
83.95
106.15
125.97
144.51
162.35
179.46
195.46
209.93
222.52
232.81
240.22
244
243.26
236.93
223.86
203.01
174
137.73
96.37
52.76
10.09
-28.75
-61.67
-87.63
-106.49
-118.57
-124.25
-123.92
-118.09
-106.6
-87.92
-59.43
-18.68
35.11
99.93
170.61
239.18
296.28
334.33
350.41
346.8
329.21
304.12
276.59
249.24
221.72
191.07
153.96
108.71
55.54
-4.78
-71.84
-145.76
-221.97
-288.01
-331.76
-349.89
-347.74
-333.1
-312.22
-288.86
-265.32
-242.59
-221.35
-202.9
-188.37
-177.77
-169.95
-163.59
-157.59
-151.44
-144.54
-136.59
-128.3
-120.58
-113.88
-107.6
-103.47
-99.07
-92.4
-81.79
-66.26
-46.39
-23.77
-0.68
20.95
41.01
57.53
69.37
76.66
80
79.24
73.76
62.31
44.07
18.79
-13.12
-50.9
-93.24
-137.7
-180.83
-214.08
-231.58
-229.95
-210.22
-178.22
-142.72
-113.22
-92.76
-81.6
-77.19
-76.92
-78.94
-83.06
-89.99
-100.13
-112.79
-126.04
-138.16
-147.43
-153.85
-158.36
-162.62
-167.71
-173.07
-175.88
-171
-156.15
-128.57
-87.82
-36.03
22.62
83.34
142.43
197.76
248.79
295.25
337.23
374.43
407.12
436.93
466.64
498.44
531.58
560.99
577.86
573.75
544.21
491.71
425.04
355.83
294.11
245.46
210.79
188.19
175.34
169.91
169.26
169.98
168.78
164.21
158.2
155.78
162.68
182.23
213.22
249.87
283.9
307.35
314.87
304.63
278.22
239.56
193.81
146.06
100.22
58.43
21
-12.85
-44.21
-73.75
-101.64
-127.82
-152.52
-176.43
-200.6
-226.18
-254.06
-284.75
-318.17
-353.3
-388.03
-419.03
-442.5
-455.21
-455.99
-446.41
-430.37
-412.42
-395.63
-380.06
-362.85
-339.86
-307.85
-266.35
-218.01
-167.71
-120.88
-81.99
-53.72
-36.81
-30.44
-32.58
-40.43
-50.66
-59.85
-64.92
-63.67
-55.19
-40.06
-20.39
0.63
19.5
33.3
40.62
41.87
38.94
34.34
30.24
27.81
27.06
27.27
27.46
26.85
25.02
21.88
17.51
12.14
6.11
-0.08
-5.65
-9.74
-11.45
-10.26
-6.16
0.28
8.08
16.16
23.69
30.36
36.22
41.65
46.96
52.3
57.54
62.33
66.14
68.41
68.67
66.63
62.29
55.94
48.03
39.07
29.42
19.27
8.56
-2.9
-15.31
-28.76
-43.1
-57.73
-71.61
-83.44
-91.89
-96.06
-95.87
-92.22
-86.76
-81.37
-77.53
-75.8
-75.69
-75.9
-74.98
-71.88
-66.32
-58.83
-50.47
-42.54
-36.35
-32.95
-32.72
-34.83
-37.03
-36.01
-28.62
-13.49
7.8
30.87
50.07
60.76
61.2
52.93
39.7
25.41
12.44
1.09
-9.76
-21.41
-34.44
-48.57
-63.1
-77.09
-89.27
-97.55
-98.8
-89.48
-66.99
-31.27
14.47
64.27
111.23
149.63
176.51
191.87
197.73
196.76
191.21
182.63
172.15
160.87
149.9
140.11
131.76
124.41
117.12
108.91
99.25
88.24
76.53
65.01
54.56
45.72
38.53
32.61
27.27
21.79
15.79
9.36
3.09
-2.25
-5.96
-7.76
-7.74
-6.28
-3.83
-0.8
2.45
5.54
7.96
9.26
9.11
7.56
5.06
2.25
-0.19
-1.82
-2.56
-2.68
-2.62
-2.83
-3.55
-4.77
-6.2
-7.42
-8.06
-7.88
-6.92
-5.4
-3.68
-2.14
-1.07
-0.79
-1.66
-4.1
-8.37
-14.34
-21.35
-28.23
-33.69
-36.77
-37.21
-35.44
-32.4
-28.99
-25.72
-22.58
-19.26
-15.51
-11.43
-7.51
-4.45
-2.76
-2.57
-3.47
-4.78
-5.79
-6.1
-5.74
-5.02
-4.32
-3.84
-3.59
-3.38
-3.2
-3.26
-4
-5.81
-8.83
-12.79
-17.04
-20.83
-23.62
-25.39
-26.42
-27.18
-27.92
-28.51
-28.54
-27.48
-25
-21.1
-16.07
-10.32
-4.3
1.53
6.66
10.49
12.37
11.79
8.65
3.39
-3.13
-9.82
-15.83
-20.72
-24.61
-27.91
-31.14
-34.46
-37.64
-39.99
-40.62
-38.89
-34.64
-28.47
-21.43
-14.7
-9
-4.4
-0.34
3.84
8.23
12.23
14.69
14.67
12.1
7.98
4
1.71
1.91
4.38
8.31
12.86
17.63
22.66
28.1
33.92
39.72
44.9
48.91
51.53
52.75
52.73
51.63
49.61
46.88
43.68
40.33
37.01
33.79
30.59
27.3
23.84
20.09
16
11.42
6.27
0.63
-5.2
-10.66
-15.23
-18.62
-20.99
-22.83
-24.7
-26.92
-29.31
-31.33
-32.23
-31.46
-28.78
-24.42
-18.83
-12.61
-6.35
-0.58
4.25
7.84
10.06
11.07
11.16
10.73
10.08
9.36
8.57
7.63
6.53
5.35
4.29
3.52
3.11
3.03
3.11
3.21
3.19
3.06
2.82
2.52
2.2
1.82
1.38
0.86
0.23
-0.58
-1.72
-3.31
-5.4
-7.86
-10.33
-12.3
-13.32
-13.06
-11.5
-8.86
-5.51
-1.88
1.64
4.7
7.02
8.4
8.74
8.13
6.73
4.84
2.76
0.77
-0.95
-2.27
-3.13
-3.57
-3.62
-3.39
-2.95
-2.4
-1.79
-1.17
-0.56
0
0.48
0.83
0.96
0.78
0.11
-1.2
-3.2
-5.82
-8.76
-11.54
-13.6
-14.51
-14.01
-12.13
-9.05
-5.07
-0.49
4.37
9.11
13.28
16.47
18.39
19.04
18.65
17.63
16.34
15.03
13.78
12.68
11.82
11.35
11.38
11.97
13.09
14.63
16.47
18.48
20.5
22.38
23.99
25.37
26.67
28.05
29.43
30.45
30.58
29.49
27.34
24.99
23.76
24.99
29.58
37.71
48.85
61.98
75.79
88.96
100.35
109.27
115.72
120.53
125.08
130.86
138.91
149.34
161.16
172.45
180.68
183.01
177.03
161.12
134.95
99.5
56.68
8.57
-43.41
-98.66
-156.78
-216.45
-274.6
-326.57
-367.41
-393.79
-405.32
-404.81
-396.83
-385.8
-374.21
-362.13
-347.74
-328.75
-303.76
-272.94
-238.06
-202.03
-168.15
-139.43
-117.8
-103.48
-94.72
-88.19
-79.69
-65.3
-42.51
-10.78
28.29
71.42
114.31
152.6
182.65
202.24
210.91
209.85
201.5
188.84
174.62
160.91
148.86
138.75
130.27
122.67
115
106.32
95.86
83.34
69.1
54.16
39.9
27.63
18.16
11.45
6.9
3.67
1.26
-0.28
-0.55
0.78
3.54
7
10.15
12.2
12.93
12.74
12.39
12.51
13.45
15.11
17.25
19.7
22.52
25.88
29.92
34.65
39.76
44.79
49.17
52.46
54.49
55.43
55.76
56.06
56.67
57.4
57.67
56.86
54.96
52.84
51.92
52.98
54.91
54.63
48.02
31.59
3.69
-34.97
-81.82
-133.11
-184.34
-230.3
-265.49
-285.23
-287.34
-273.6
-249.55
-222.52
-198.51
-179.66
-163.56
-144.62
-116.92
-77.15
-26.47
29.16
80.35
117.03
131.75
122.22
91.89
48.29
0.14
-45.56
-85.12
-117.83
-144.42
-165.59
-181.58
-192.38
-198.52
-201.26
-202.17
-202.41
-202.38
-201.87
-200.16
-196.15
-188.32
-175.08
-155.45
-129.78
-100.11
-69.42
-40.18
-12.99
13.9
44.04
81.23
128.07
185.19
251.03
321.96
392.58
455.87
504.08
530.31
530.85
507.24
466.84
421.15
382.21
358.51
352.1
358.48
369.05
375.24
371.86
358.42
338.16
315.49
293.51
272.84
252.49
231.8
211.97
196.03
186.97
185.23
187.27
186.2
174.43
147.05
104.02
49.85
-8.86
-66.61
-120.67
-170.69
-216.49
-256.35
-286.71
-304.2
-308.01
-301.12
-289.22
-277.81
-269.86
-264.76
-259.69
-252.15
-241.83
-230.54
-220.55
-212.62
-205.18
-195.44
-181.36
-163.21
-143.62
-126.21
-113.61
-106.18
-102.14
-98.71
-93.65
-86.04
-76.44
-66.32
-57.48
-51.5
-49.38
-51.22
-55.95
-61.54
-65.64
-66.62
-64.53
-61.23
-59.82
-63.2
-72.84
-87.97
-105.82
-122.52
-134.5
-139.45
-136.9
-127.96
-114.9
-100.41
-87.09
-76.97
-71.19
-69.58
-70.77
-72.36
-71.79
-67.11
-57.57
-43.45
-25.57
-4.7
18.62
43.58
68.65
91.34
108.85
119.13
121.88
118.75
112.56
105.95
100.29
95.44
90.29
83.89
76.07
67.59
59.57
52.71
46.89
41.35
35.24
28.25
20.83
13.79
7.67
2.2
-3.59
-10.79
-19.86
-30.35
-41.06
-50.81
-58.86
-65.09
-69.55
-72.11
-72.28
-69.64
-64.41
-57.7
-51.33
-46.98
-45.33
-45.54
-45.64
-43.3
-36.92
-26.13
-11.79
4.51
21.18
37.1
51.74
64.99
76.82
87.04
95.23
100.93
103.84
104.02
101.95
98.52
94.78
91.65
89.58
88.34
87.18
85.24
82.15
78.42
75.32
74.39
76.66
82.16
89.78
97.75
104.26
108.05
108.52
105.66
99.85
91.71
82.14
72.26
63.28
56.34
52.11
50.8
52.1
55.4
59.79
64.12
66.84
66.11
60.18
48.03
29.96
7.71
-16.2
-39.47
-61.05
-81.46
-102.24
-124.75
-149.14
-173.87
-196.12
-212.68
-220.9
-219.17
-207.08
-185.38
-155.92
-121.67
-86.36
-53.92
-27.5
-8.73
2.49
7.7
9.05
8.64
7.98
7.92
8.75
10.37
12.45
14.52
16.18
17.22
17.65
17.64
17.28
16.3
14.25
10.73
5.82
0.23
-5.18
-9.88
-14.14
-18.77
-24.27
-30.06
-34.17
-34.14
-28.3
-17.09
-3.2
9.3
16.64
16.91
10.52
-0.16
-11.92
-21.69
-27.15
-27.03
-21.12
-10.31
3.61
18.27
31.33
41.05
46.73
48.56
47.34
44.12
39.99
36.03
33.25
32.43
33.8
36.97
41.03
45.08
48.69
52.08
55.99
61.14
67.94
76.32
85.74
95.36
103.94
109.9
111.59
108.07
99.8
89.02
78.95
72.28
69.62
68.88
66.13
57.51
41.25
18.59
-6.76
-30.13
-47.62
-57.07
-58.09
-51.6
-39.19
-22.66
-3.9
15.4
33.96
50.96
65.95
78.55
88.22
94.37
96.69
95.35
90.97
84.22
75.46
64.86
52.78
40.49
30.17
24.32
24.71
31.61
43.57
57.92
71.43
80.81
83.09
76.11
59.18
33.75
3.56
-26.16
-50.34
-65.85
-72.38
-72.16
-68.68
-65
-62.81
-62.34
-63.04
-64.37
-66.19
-68.48
-70.93
-72.72
-72.68
-69.92
-64.53
-57.86
-52.26
-50.17
-53.03
-60.62
-71.09
-81.74
-90.05
-94.68
-95.85
-95.14
-94.89
-97.38
-104.16
-115.63
-131.08
-149.19
-168.56
-188.02
-206.6
-223.15
-235.91
-242.6
-240.9
-229.33
-208.16
-179.66
-147.59
-116.16
-88.75
-67.11
-51.17
-39.61
-30.62
-22.66
-14.8
-6.69
1.71
10.4
19.44
28.74
38.02
46.76
54.41
60.77
66.23
71.74
78.46
87.23
98.04
109.78
120.48
127.9
130.33
127.19
119.26
108.25
96.14
84.44
73.88
64.55
56.24
48.77
42.12
36.27
31.1
26.33
21.68
17.11
12.86
9.41
7.21
6.51
7.36
9.65
13.21
17.87
23.32
29.06
34.37
38.42
40.56
40.5
38.49
35.12
31.11
26.97
22.95
19.02
15.15
11.5
8.46
6.48
5.81
6.2
7.01
7.5
7.15
5.94
4.29
2.76
1.74
1.17
0.69
-0.12
-1.52
-3.4
-5.4
-7
-7.77
-7.34
-5.44
-1.83
3.64
10.94
19.82
29.62
39.36
47.76
53.62
56.03
54.75
50.29
43.74
36.41
29.41
23.36
18.32
13.96
9.83
5.64
1.33
-2.92
-6.82
-10.15
-12.75
-14.59
-15.7
-16.11
-15.85
-14.99
-13.73
-12.39
-11.46
-11.41
-12.51
-14.67
-17.45
-20.22
-22.33
-23.4
-23.29
-22.07
-19.83
-16.61
-12.49
-7.66
-2.48
2.59
7.12
10.93
14.03
16.55
18.47
19.54
19.34
17.54
14.21
9.89
5.5
1.95
-0.15
-0.69
-0.05
1.16
2.31
3
3.1
2.67
1.9
0.94
-0.07
-1.03
-1.89
-2.69
-3.61
-4.87
-6.68
-9.03
-11.62
-13.83
-14.99
-14.53
-12.28
-8.54
-3.98
0.54
4.27
6.78
8.03
8.29
7.97
7.44
6.82
6.06
4.99
3.59
2.01
0.68
-0.04
0.1
1.07
2.57
4.22
5.64
6.6
6.96
6.66
5.71
4.19
2.33
0.38
-1.38
-2.79
-3.78
-4.42
-4.86
-5.25
-5.73
-6.32
-6.89
-7.13
-6.67
-5.21
-2.68
0.68
4.39
7.86
10.63
12.49
13.48
13.71
13.36
12.53
11.26
9.64
7.78
5.89
4.19
2.84
1.91
1.28
0.82
0.35
-0.2
-0.84
-1.53
-2.24
-2.96
-3.72
-4.54
-5.39
-6.28
-7.19
-8.14
-9.17
-10.32
-11.6
-13.01
-14.49
-15.79
-16.56
-16.3
-14.63
-11.44
-7.04
-2.08
2.66
6.52
9.17
10.59
11
10.7
9.89
8.71
7.21
5.44
3.48
1.46
-0.43
-1.94
-2.81
-2.91
-2.25
-1.02
0.46
1.85
2.9
3.49
3.6
3.38
2.92
2.32
1.65
0.9
0.04
-0.97
-2.16
-3.58
-5.28
-7.32
-9.64
-12.05
-14.17
-15.5
-15.59
-14.21
-11.48
-7.74
-3.55
0.58
4.21
7.08
9.06
10.13
10.36
9.83
8.7
7.11
5.32
3.56
2.13
1.23
0.94
1.15
1.65
2.21
2.64
2.9
3.02
3.05
3.05
3.03
2.98
2.86
2.66
2.34
1.9
1.34
0.61
-0.31
-1.48
-3
-4.91
-7.2
-9.74
-12.27
-14.38
-15.69
-15.83
-14.64
-12.15
-8.64
-4.51
-0.23
3.77
7.14
9.65
11.2
11.85
11.77
11.18
10.33
9.39
8.39
7.32
6.09
4.7
3.24
1.9
0.87
0.25
0.04
0.09
0.2
0.16
-0.16
-0.82
-1.82
-3.07
-4.53
-6.11
-7.76
-9.34
-10.71
-11.73
-12.36
-12.78
-13.36
-14.54
-16.62
-19.48
-22.6
-25.15
-26.42
-26.08
-24.39
-21.99
-19.58
-17.49
-15.59
-13.37
-10.21
-5.83
-0.42
5.41
10.88
15.31
18.41
20.28
21.32
22.14
23.36
25.53
28.93
33.52
38.83
44.11
48.58
51.74
53.68
54.99
56.5
58.77
61.69
64.55
66.39
66.62
65.46
63.96
63.54
65.27
69.32
74.85
80.34
84.37
86.28
86.52
86.65
88.84
95.23
107.26
124.74
145.36
164.62
176.69
175.75
157.76
121.71
70.5
10.54
-49.25
-99.2
-130.89
-139.4
-124.9
-92.82
-52.35
-13.31
17.24
36.89
47.26
51.27
50.49
44.62
33.49
19.57
8.8
8.33
22.15
47.95
77.07
98.27
103.12
89.49
61.6
26.75
-8.52
-40.72
-69.09
-93.7
-113.85
-127.78
-133.94
-132.27
-124.8
-115.15
-107.13
-103.27
-103.66
-106.11
-107.13
-103.85
-95.44
-83.44
-70.9
-60.74
-54.54
-52.27
-52.89
-55.14
-57.95
-60.06
-59.76
-55.15
-45.15
-30.72
-15.12
-3.14
0.9
-5.14
-20.19
-40.64
-61.75
-79.25
-90.64
-95.5
-95.3
-92.45
-89.28
-87.08
-85.67
-83.74
-79.52
-71.89
-61
-48.28
-35.72
-25.01
-16.86
-10.92
-6.28
-2.06
2.04
5.7
8.2
8.89
7.63
4.86
1.53
-1.36
-3.01
-3.14
-1.97
0.03
2.27
4.25
5.47
5.52
4.1
1.21
-2.67
-6.5
-9.01
-9.16
-6.52
-1.43
5.17
12.1
18.26
22.9
25.68
26.76
26.76
26.66
27.45
29.76
33.4
37.2
39.32
38.05
32.71
24.24
15.17
8.68
7.31
11.94
21.41
33.07
43.85
51.52
55.19
55.16
52.21
46.81
38.85
27.85
13.7
-2.72
-19.43
-33.88
-43.94
-48.9
-49.9
-49.5
-50.67
-55.54
-64.57
-76.67
-89.77
-101.93
-112.04
-119.97
-126.18
-131.19
-135.28
-138.49
-141.03
-143.41
-146.29
-150.04
-154.34
-158.02
-159.57
-157.97
-153.35
-147.17
-141.48
-137.9
-136.49
-135.54
-131.96
-122.65
-105.68
-81.14
-51.13
-19.05
11.34
36.99
55.97
67.65
72.36
71.07
65.05
55.84
45.24
35.36
28.31
25.64
27.63
32.77
38.01
39.65
34.88
23.17
6.66
-10.62
-24.57
-32.82
-35.69
-35.82
-36.69
-41.06
-49.95
-62.56
-77.12
-91.79
-105.63
-119.05
-133.54
-150.82
-171.8
-195.7
-219.86
-240.63
-254.72
-260.39
-257.7
-247.93
-232.59
-212.75
-188.92
-161.47
-131.16
-99.35
-67.61
-37.04
-7.74
21.58
53.4
90.79
136.28
190.38
250.47
310.74
363.81
403.31
426.57
435.86
437.34
438.24
443.91
455.92
471.98
487.52
497.81
499.54
491.44
473.93
448.33
416.41
380.35
342.85
307.1
276.15
251.83
233.61
218.3
200.76
175.36
137.96
86.81
22.59
-52.51
-135.55
-222.76
-308.83
-386.32
-446.44
-481.17
-486.22
-463.1
-418.82
-363.35
-306.15
-253.51
-207.78
-168.81
-135.93
-109.1
-88.67
-73.95
-62.31
-49.47
-31.17
-5.34
26.81
61.1
92.19
116
131.16
139.09
142.8
145.07
147.21
148.87
148.86
146.39
141.96
137.28
134.47
134.97
138.7
144.01
148.41
149.74
147.13
141.36
134.47
128.69
125.36
124.23
123.34
119.69
110.1
92.08
64.44
27.62
-16.31
-63.75
-110.05
-150.34
-180.57
-198.68
-205.14
-202.53
-194.34
-183.37
-170.75
-156
-138.12
-116.89
-93.63
-70.83
-51.11
-36
-25.43
-18.05
-12.13
-6.4
-0.5
5.12
9.75
12.8
14.12
14.07
13.3
12.61
12.61
13.5
15.03
16.68
17.9
18.39
18.25
17.74
17.1
16.26
14.84
12.29
8.05
1.74
-6.72
-16.98
-28.24
-39.28
-48.68
-55.24
-58.31
-58.04
-55.3
-51.33
-47.24
-43.73
-40.98
-38.85
-37.1
-35.63
-34.6
-34.38
-35.45
-38.24
-42.91
-49.14
-55.98
-61.99
-65.45
-64.95
-59.8
-50.26
-37.45
-22.92
-8.25
5.22
16.54
25.04
30.34
32.37
31.51
28.64
25
21.84
20.01
19.75
20.65
21.95
22.9
23.02
22.24
20.85
19.42
18.66
19.15
21.17
24.47
28.25
31.39
32.8
31.85
28.57
23.6
17.85
12.12
6.89
2.27
-1.81
-5.46
-8.67
-11.33
-13.28
-14.35
-14.4
-13.34
-11.15
-7.91
-3.8
0.89
5.79
10.51
14.67
18
20.33
21.59
21.86
21.26
19.97
18.19
16.08
13.82
11.54
9.37
7.38
5.63
4.15
2.96
2.05
1.38
0.87
0.39
-0.16
-0.84
-1.72
-2.83
-4.31
-6.33
-9.04
-12.44
-16.28
-20.06
-23.15
-24.95
-24.95
-22.89
-18.7
-12.63
-5.21
2.76
10.35
16.69
21.25
23.87
24.79
24.4
23.13
21.32
19.27
17.28
15.7
14.83
14.77
15.36
16.28
17.15
17.72
17.95
17.98
18.03
18.28
18.85
19.77
20.97
22.25
23.41
24.32
25.04
25.94
27.58
30.48
34.81
40.28
46.25
52.01
57.19
61.88
66.67
72.3
79.38
88.15
98.29
109.09
119.48
128.38
134.87
138.54
139.57
138.65
136.75
134.78
133.4
132.86
132.88
132.5
129.89
122.36
106.75
80.04
40.35
-12.42
-76.41
-148.13
-223.24
-297.22
-365.52
-423.44
-466.29
-490.39
-494.46
-480.84
-455.39
-425.59
-397.8
-374.81
-354.96
-333.39
-304.85
-266.65
-220.39
-171.37
-126.12
-89.31
-61.55
-39.42
-17.57
8.12
38.25
69.44
96.25
114.05
121.12
118.79
109.61
95.1
74.82
47.35
12.77
-25.48
-60.38
-83.38
-87.41
-69.31
-30.32
25.2
91.82
164.29
237.54
306.11
364.04
406.18
430.13
437.61
433.95
425.82
418.61
414.56
413.14
412.58
411.46
409.17
405.23
398.21
385.54
364.39
333.09
292.51
246.51
201.76
166.75
149.53
154.96
182.03
222.81
264.21
292.49
298.35
280.15
243.67
198.48
153.32
112.73
76.62
42.37
7.52
-28.55
-64.67
-99.15
-131.21
-161.53
-191.83
-223.93
-258.87
-296.4
-335.38
-374.85
-414.89
-456.76
-501.68
-548.86
-593.94
-629.05
-644.97
-634.58
-595.83
-532.51
-452.57
-364.7
-275.2
-186.85
-100.35
-16.93
59.81
124.32
171.68
200.75
215.67
224.48
235.75
255.23
284.26
320.52
360.52
401.61
442.38
481.29
515.01
537.8
542.96
525.49
484.42
423.38
349.26
269.64
190.37
114.55
42.8
-25.49
-90.91
-153.57
-213.51
-271.4
-328.67
-386.5
-444.28
-498.56
-543.8
-574.55
-588.02
-585.37
-571.05
-550.43
-527.6
-504.33
-480.76
-456.76
-432.55
-408.21
-382.51
-352.49
-314.56
-266.9
-211.61
-155.11
-106.07
-71.88
-55.6
-54.62
-62.03
-69.56
-70.78
-62.76
-45.81
-21.86
7.36
40.96
78.31
117.62
155.17
185.96
205.52
211.96
206.8
194.28
179.22
165.08
152.9
141.73
129.93
116.42
101.25
85.34
69.82
55.47
42.7
31.65
22.42
15.15
9.82
6.28
4.26
3.57
4.29
6.5
10.04
14.24
17.94
19.93
19.58
17.15
13.74
10.68
8.87
8.45
8.97
9.93
11.26
13.39
16.82
21.65
27.21
32.34
35.97
37.63
37.81
37.51
37.74
38.92
40.7
42.25
42.66
41.53
39.09
36.18
33.94
33.38
35.07
38.9
44.18
49.69
53.97
55.53
53.1
45.95
34.07
18.33
0.28
-18.17
-35.19
-49.53
-60.69
-68.92
-74.77
-78.83
-81.35
-82.32
-81.73
-79.85
-77.27
-74.83
-73.29
-72.99
-73.79
-75.22
-76.74
-78.01
-79.14
-80.61
-83.07
-87.13
-92.75
-98.91
-103.42
-103.44
-96.58
-82.02
-61.25
-37.6
-14.99
3.71
17.64
27.96
36.77
45.77
55.45
64.91
72.64
77.27
78.16
75.44
69.76
61.99
53.04
43.88
35.36
27.98
21.6
15.14
6.74
-5.71
-23.56
-46.61
-72.47
-96.82
-114.33
-120.13
-111.42
-88.46
-54.74
-15.99
21.41
52.34
74.09
86.66
92.04
93.02
92.21
91.44
91.91
94.38
99.4
107.18
117.27
128.38
138.27
144.32
144.11
136.35
121.52
101.97
81.24
62.87
49.23
40.81
36.62
34.98
34.64
34.97
35.62
35.73
33.65
27.53
16.21
0.25
-18.18
-36.15
-51.15
-61.94
-68.47
-71.35
-71.41
-69.72
-67.72
-66.99
-68.24
-70.08
-68.77
-59.55
-39.21
-8.49
27.47
61.13
86.12
100.33
106.63
110.85
118.29
130.7
145.45
157.05
160.01
151.31
131.39
103.56
72.32
41.81
14.57
-8.64
-28.21
-44.58
-57.26
-64.6
-64.47
-55.62
-38.75
-16.61
7
29.05
48.59
66.93
86.38
108.49
132.61
156.01
175.25
187.96
194.04
195.38
194.7
194.17
194.76
196.26
197.88
198.57
196.94
191.27
179.53
160.17
132.99
99.65
63.21
26.91
-7.08
-38.35
-67.83
-96.78
-125.71
-154.36
-182.22
-209.56
-238.14
-270.96
-311.52
-362.89
-427.09
-504.46
-592.98
-687.52
-779.67
-858.73
-914.03
-937.96
-928.12
-887.73
-823.76
-744.12
-655.19
-561.09
-464.45
-367.87
-274.59
-187.9
-109.79
-40.12
23.27
83.22
141.5
197.72
249.6
293.9
328.51
353.62
371.9
387.88
406.5
431.38
463.11
498.57
531.34
553.83
559.42
544.64
510.32
461.44
405.88
352.3
307.91
276.73
259.58
253.15
250.97
245.45
230.17
201.89
160.89
109.72
51.21
-11.28
-75.63
-140.04
-201.47
-254.89
-293.89
-313.02
-310.4
-288.59
-250.82
-201.52
-144.74
-83.69
-20.54
43.23
105.72
164.2
215.67
261.37
303.75
345.43
387.44
429.07
468.35
502.37
527.7
520.69
467.88
371.32
249.64
127.16
22.34
-56.07
-107.03
-133.98
-142.98
-137.88
-125.17
-111.67
-103.83
-105.42
-115.86
-131.07
-146.1
-155.2
-153.67
-141.54
-122.2
-100.34
-79.63
-61.99
-48.85
-41.74
-42.24
-49.58
-62.01
-76.37
-89.61
-99.47
-105.02
-107.37
-108.61
-111.41
-117.72
-128.91
-144.85
-163.65
-181.41
-189.83
-182.79
-158.23
-120.08
-77.37
-41.32
-20.81
-19.09
-32.62
-52.78
-69.66
-74.54
-61.96
-30.15
18.99
80.22
145.23
203.83
246.18
265.18
258.98
230.94
188.34
140.02
93.99
55.89
28.32
11.14
2.17
-1.6
-3.29
-5.21
-8.35
-12.52
-16.77
-20.21
-22.52
-23.99
-24.9
-24.91
-22.97
-17.86
-9.21
1.95
13.27
22.13
26.84
27.34
24.93
21.3
17.27
12.26
4.72
-6.84
-22.78
-41.93
-62.01
-80.53
-95.65
-106.49
-112.9
-114.76
-111.59
-102.58
-86.92
-64.52
-36.25
-3.88
30.44
64.79
97.79
128.44
155.69
178.16
194.34
203.33
205.57
203.17
199.26
196.58
196.1
196.45
194.73
188.18
175.95
159.92
144.05
132.8
129.47
135.28
149.09
167.88
187.28
202.02
206.71
196.88
170.14
126.85
70.17
4.79
-64.64
-134.77
-204.15
-273.08
-342.96
-415.44
-491.08
-568.02
-641.13
-702.2
-741.91
-752.82
-732.13
-682.82
-612.38
-529.97
-443.27
-356.98
-272.88
-191.21
-112.04
-35.61
38.29
111.11
185.3
262.93
343.52
422.85
493.39
546.35
574.95
576.81
554.68
514.96
464.99
410.44
354.09
296.22
236.21
174.19
111.59
50.79
-5.91
-56.98
-101.79
-140.03
-171.14
-194.2
-208.11
-212.57
-208.6
-198.47
-185.1
-170.94
-157.23
-143.84
-129.8
-114.26
-97.31
-80.36
-65.65
-55.49
-51.07
-51.82
-55.4
-58.45
-57.99
-52.75
-43.91
-34.71
-29.3
-31.05
-41.08
-57.79
-77.3
-94.67
-105.45
-107.22
-100.27
-87.18
-72.18
-60.14
-56.02
-64.37
-88.34
-128.22
-180.29
-237.12
-289.93
-332.01
-361.36
-380.89
-395.76
-409.66
-422.08
-428.73
-424.22
-405.39
-372.86
-329.93
-280.04
-224.68
-163.43
-95.83
-23.15
50.95
121.68
185.26
240.74
290.21
337.85
388.45
445.44
509.46
577.4
642.5
695.64
727.93
733.64
712.24
668.37
609.86
544.45
476.96
408.35
337.12
262.13
185.08
111.11
47.26
-0.48
-29.64
-42.18
-43.46
-40.04
-37.4
-38.51
-43.82
-52
-61.1
-69.28
-75.25
-78.48
-79.33
-79.04
-79.36
-81.92
-87.55
-95.99
-106.15
-116.62
-126.02
-133.08
-136.31
-134
-124.64
-107.87
-85.36
-60.7
-38.55
-22.98
-15.95
-16.89
-23.38
-32.61
-42.43
-51.5
-58.39
-60.47
-53.77
-34.21
0.28
48.06
103.5
158.61
205.6
239.22
257.58
261.46
252.83
233.46
204.61
167.5
124.07
77.26
30.7
-12.23
-49.21
-79.29
-102.86
-120.96
-134.59
-144.34
-150.17
-151.93
-149.8
-144.78
-138.53
-132.86
-128.88
-126.49
-124.42
-120.79
-114.17
-104.15
-91.61
-78.21
-65.72
-55.31
-47.25
-41.18
-36.31
-31.73
-26.61
-20.3
-12.64
-4.2
3.68
9.21
10.9
8.34
2.57
-4.14
-9.34
-11.32
-9.87
-6.05
-1.34
3.28
7.86
13.18
20.08
28.61
37.96
46.87
54.31
60.02
64.5
68.48
72.27
75.61
77.94
79.02
79.29
79.73
81.31
84.26
87.84
90.57
90.87
87.76
81.23
72.15
61.93
52.09
43.84
37.98
34.64
33.24
32.39
30.15
24.54
14.3
-0.25
-17.11
-33.07
-44.85
-50.3
-49.19
-43.08
-34.52
-26.01
-19.19
-14.63
-12.17
-11.37
-11.87
-13.41
-15.69
-18.24
-20.43
-21.73
-21.88
-21.09
-19.95
-19.11
-18.95
-19.29
-19.49
-18.67
-16.21
-12
-6.51
-0.57
5.01
9.7
13.33
15.98
17.84
19.04
19.66
19.71
19.18
18.02
16.16
13.6
10.48
7.08
3.75
0.81
-1.54
-3.2
-4.14
-4.34
-3.87
-2.93
-1.88
-1.18
-1.2
-2.05
-3.52
-5.15
-6.44
-7.02
-6.79
-5.91
-4.71
-3.59
-2.92
-2.96
-3.82
-5.43
-7.51
-9.69
-11.55
-12.81
-13.32
-13.09
-12.22
-10.93
-9.54
-8.54
-8.6
-10.36
-14.13
-19.66
-26.04
-31.93
-35.95
-37.2
-35.48
-31.31
-25.58
-19.2
-12.86
-6.97
-1.77
2.51
5.57
7.19
7.34
6.18
4.03
1.23
-1.99
-5.46
-8.96
-12.13
-14.48
-15.49
-14.88
-12.73
-9.5
-5.87
-2.55
-0.07
1.29
1.49
0.7
-0.79
-2.55
-4.14
-5.15
-5.23
-4.13
-1.64
2.27
7.49
13.6
19.99
25.89
30.62
33.9
35.82
36.84
37.42
37.8
37.86
37.25
35.74
33.49
31.17
29.62
29.58
31.21
34.14
37.64
41.12
44.39
47.72
51.67
56.63
62.68
69.47
76.47
83.21
89.46
95.34
101.21
107.74
115.64
125.56
137.79
151.94
166.98
181.53
194.43
205.32
214.84
224.25
234.56
245.47
254.78
258.58
252.32
232.54
198.24
151.56
97.04
40.01
-15.35
-67.35
-116.98
-166.88
-219.61
-276.17
-335.2
-393.27
-445.8
-488.03
-515.68
-525.43
-515.56
-486.74
-442.6
-389.38
-334.55
-284.37
-242.08
-207.47
-178.15
-152.06
-129.16
-111.39
-100.69
-96.48
-94.34
-87.01
-67.41
-32.16
16.42
71.16
123.02
164.63
192.42
206.41
208.12
198.16
175.21
136.57
80.25
7.1
-77.85
-165.65
-245.3
-306.38
-341.71
-348.98
-330.82
-293.22
-243.02
-185.67
-123.89
-58.33
10.59
80.57
146.71
202.44
241.82
261.89
263.63
251.31
230.4
205.59
179.45
151.93
121.3
85.53
43.92
-1.83
-47.77
-89.09
-121.99
-145.11
-159.71
-168.08
-171.53
-168.99
-157.19
-132.44
-93.03
-40.75
19.44
81.2
139.07
189.36
229.91
258.69
272.92
269.3
245.05
199.14
132.97
50.54
-41.72
-135.23
-219.82
-284.91
-321.73
-326.15
-300.63
-254.1
-199.31
-148.48
-109.13
-82.19
-63.36
-46.53
-27.31
-4.96
18.23
39.02
55.38
67.36
76.52
84.42
91.52
96.87
99.06
97.44
92.79
87.17
82.88
81.4
82.71
85.47
87.79
88.07
85.69
81.05
75.37
70.15
66.71
65.89
67.88
72.25
77.97
83.62
87.77
89.36
88.02
84.26
79.16
73.94
69.46
65.92
62.95
59.91
56.39
52.38
48.3
44.65
41.61
39.02
36.36
33.36
30.22
27.79
27.22
29.42
34.55
41.8
49.64
56.34
60.61
62.05
61.2
59.27
57.59
57.11
57.99
59.66
61.04
61.14
59.47
56.37
52.87
50.3
49.74
51.52
55.16
59.56
63.65
66.89
69.55
72.65
77.48
85.18
96.38
111.12
128.67
147.32
164.05
174.62
174.3
159.07
127.31
80.54
23.12
-39.44
-102.67
-164.98
-228.21
-296.18
-371.88
-454.43
-537.71
-611.3
-663.88
-687.25
-679.16
-643.52
-588.11
-521.4
-450.02
-378.03
-307.67
-240.19
-176.07
-114.43
-52.64
12.87
84.24
159.51
231.71
290.76
327.7
339.1
329.5
310.13
294.8
294.55
313.56
348.14
388.54
422.56
439.37
432.35
400.14
346.45
278.89
207.24
141.59
90.38
58.79
47.65
53.4
69.07
86.04
96.54
95.76
83.11
61.86
37.5
15.38
-1.36
-12.62
-20.62
-28.26
-37.42
-48.06
-58.82
-68.01
-74.92
-80.26
-85.69
-92.71
-101.56
-110.95
-118.6
-122.6
-122.58
-119.92
-117.14
-116.4
-118.48
-122.54
-126.83
-129.84
-130.98
-130.58
-129.23
-127.21
-124.28
-120.07
-114.61
-108.59
-103.09
-99.03
-96.77
-96.09
-96.39
-96.9
-96.94
-95.96
-93.61
-89.97
-85.5
-81.04
-77.65
-76.3
-77.67
-81.8
-87.98
-94.59
-99.31
-99.45
-92.62
-77.17
-52.33
-17.88
26.06
78.85
138.57
201.07
259.85
307.06
335.7
342.01
326.75
294.75
253.15
208.89
166.81
129.14
95.67
64.86
34.77
3.53
-30.51
-68.62
-111.31
-157.58
-204.16
-245.4
-274.45
-285
-273.59
-240.81
-190.99
-130.28
-64.33
3.33
71.35
139.36
206.3
269.53
325.2
369.57
400.6
418.89
427.52
430.78
432.62
435.06
437.55
437.5
431.69
417.86
395.74
367
334.25
299.84
265.07
230.19
195.06
159.91
125.32
92.07
60.49
30.11
-0.22
-32.07
-66.77
-104.63
-144.23
-182.15
-213.86
-235.77
-247.39
-252.24
-256.3
-264.48
-277.61
-292.04
-302.43
-305.86
-304.41
-304.04
-310.3
-323.73
-338.11
-342.85
-327.97
-289.07
-229.17
-157.69
-87.3
-30.58
2.14
4.03
-27.66
-90.89
-178.31
-277.69
-373.68
-451.35
-500.6
-519.96
-517.32
-506.83
-502.52
-511.84
-532.26
-553.07
-561.29
-548.45
-514.19
-465.11
-409.91
-354.67
-300.81
-246.71
-190.84
-134.19
-80
-31.85
8.99
44.55
79.41
118.56
165.08
218.6
275.12
328.5
372.56
403.29
420.02
425.27
423.29
418.17
412.42
406.5
399.57
390.54
379.06
365.58
351
335.81
319.86
302.51
283.24
262.25
240.47
219.04
198.65
179.01
159.01
137.39
113.61
88.07
61.85
35.87
10.63
-13.92
-37.82
-60.72
-81.82
-100.06
-114.5
-124.36
-128.84
-127.11
-118.56
-103.41
-83.02
-59.77
-36.3
-14.72
3.91
19.37
31.89
42.02
50.67
59.51
70.6
85.56
104.32
124.56
142.12
152.47
152.4
141.2
120.78
94.85
68.07
45.08
30.01
25.81
33.46
51.36
75.27
99.31
117.76
126.95
126.34
118.27
106.68
95.34
86.39
79.65
72.79
62.19
44.22
16.61
-20.31
-63.21
-106.36
-143.4
-169.66
-183.94
-188.77
-189.1
-189.81
-193.37
-198.72
-201.72
-196.81
-179.05
-145.66
-96.63
-34.57
36.07
109.86
181.37
245.9
300.17
342.56
373.11
393.15
404.81
410.66
413.35
415.11
417.2
419.58
421.17
420.34
415.69
406.52
392.73
374.39
351.27
322.94
289.02
249.66
205.72
158.51
109.38
59.47
9.77
-38.63
-84.46
-126.59
-164.73
-199.74
-233.39
-267.52
-303.06
-339.47
-375.06
-407.62
-435.7
-459.24
-479.7
-499.67
-522.35
-551
-588.17
-634.6
-687.95
-742.26
-788.74
-818.17
-824.09
-805.17
-765.58
-713.1
-655.85
-599.55
-546.51
-496.55
-448.85
-403.34
-360.83
-322.1
-286.93
-253.77
-220.53
-185.76
-149.43
-112.9
-78.36
-47.56
-20.96
2.48
24.81
48.15
73.78
101.65
130.55
158.78
184.94
208.6
230.36
251.62
274.11
299.33
328.07
359.86
392.73
423.37
447.83
462.71
466.25
458.94
443.24
422.6
400.18
377.95
356.56
335.78
315.16
294.48
273.83
253.35
232.98
212.59
192.11
171.91
152.79
135.83
122.05
111.85
104.82
99.8
95.23
89.7
82.38
73.23
62.89
52.36
42.67
34.61
28.61
24.82
23.09
23.01
23.99
25.27
26.13
25.99
24.67
22.31
19.34
16.26
13.45
11.06
9.03
7.19
5.31
3.24
0.91
-1.68
-4.47
-7.38
-10.31
-13.16
-15.83
-18.27
-20.46
-22.46
-24.4
-26.42
-28.58
-30.77
-32.71
-33.95
-34.01
-32.6
-29.65
-25.4
-20.26
-14.73
-9.18
-3.91
0.87
4.95
8.06
9.98
10.57
9.92
8.39
6.46
4.6
3.07
1.87
0.78
-0.44
-1.94
-3.67
-5.46
-7.14
-8.64
-10.05
-11.54
-13.28
-15.29
-17.47
-19.63
-21.53
-22.98
-23.81
-23.88
-23.02
-21.06
-17.85
-13.4
-7.89
-1.69
4.65
10.56
15.49
19.06
21.1
21.73
21.25
20.08
18.59
17.07
15.66
14.41
13.35
12.48
11.77
11.13
10.45
9.56
8.36
6.83
5.06
3.16
1.21
-0.78
-2.78
-4.78
-6.68
-8.47
-10.24
-12.16
-14.42
-16.9
-19.2
-20.63
-20.52
-18.54
-14.89
-10.13
-4.96
0.07
4.69
8.73
11.95
13.95
14.36
13.05
10.41
7.17
4.18
1.95
0.39
-0.97
-2.7
-5
-7.55
-9.67
-10.68
-10.34
-8.96
-7.24
-5.84
-5
-4.43
-3.56
-2.02
0.09
2.08
3.08
2.41
0.02
-3.6
-7.62
-11.24
-14
-15.73
-16.44
-16.08
-14.58
-11.88
-8.05
-3.45
1.41
5.93
9.62
12.16
13.49
13.7
13.02
11.72
10.01
8.04
5.9
3.7
1.62
-0.05
-0.97
-0.92
0.09
1.74
3.49
4.71
4.93
4.01
2.18
-0.06
-2.21
-3.9
-5.1
-5.97
-6.77
-7.65
-8.67
-9.8
-11.04
-12.48
-14.21
-16.2
-18.2
-19.68
-20.07
-18.92
-16.19
-12.17
-7.45
-2.6
1.94
5.93
9.25
11.78
13.4
13.98
13.51
12.13
10.2
8.12
6.26
4.84
3.88
3.28
2.84
2.42
1.93
1.4
0.88
0.49
0.24
0.08
-0.09
-0.43
-1.04
-1.94
-3.11
-4.49
-5.98
-7.49
-8.94
-10.24
-11.41
-12.54
-13.81
-15.42
-17.42
-19.56
-21.32
-22
-21.05
-18.29
-14.08
-9.09
-4.09
0.42
4.29
7.57
10.33
12.43
13.53
13.29
11.6
8.77
5.44
2.33
0.02
-1.26
-1.6
-1.28
-0.63
0.1
0.74
1.19
1.46
1.58
1.63
1.64
1.54
1.15
0.29
-1.15
-3.1
-5.3
-7.4
-9.17
-10.55
-11.68
-12.82
-14.22
-16.01
-18.14
-20.32
-22.07
-22.79
-21.95
-19.33
-15.13
-9.9
-4.4
0.7
5.04
8.53
11.32
13.46
14.92
15.53
15.13
13.72
11.52
8.96
6.48
4.47
3.09
2.31
1.95
1.8
1.75
1.8
1.99
2.35
2.75
3
2.89
2.31
1.28
-0.04
-1.53
-3.04
-4.53
-5.97
-7.37
-8.77
-10.24
-11.92
-13.92
-16.32
-19.01
-21.72
-24.02
-25.39
-25.36
-23.64
-20.27
-15.6
-10.24
-4.84
0.05
4.11
7.31
9.72
11.45
12.51
12.86
12.46
11.39
9.83
8.02
6.25
4.71
3.56
2.89
2.7
2.9
3.36
3.93
4.44
4.83
5.06
5.08
4.86
4.31
3.37
2.03
0.38
-1.45
-3.3
-5.04
-6.59
-7.97
-9.23
-10.48
-11.86
-13.51
-15.55
-17.93
-20.4
-22.41
-23.32
-22.63
-20.15
-16.14
-11.22
-6.1
-1.37
2.66
5.87
8.26
9.78
10.36
9.94
8.62
6.68
4.51
2.47
0.78
-0.52
-1.48
-2.19
-2.68
-2.9
-2.76
-2.24
-1.39
-0.41
0.42
0.79
0.54
-0.38
-1.82
-3.54
-5.29
-6.87
-8.18
-9.2
-9.93
-10.47
-10.96
-11.69
-12.96
-14.93
-17.49
-20.12
-22.04
-22.45
-20.89
-17.41
-12.52
-7.02
-1.65
3.08
6.98
10.03
12.26
13.62
14.1
13.7
12.54
10.86
8.98
7.17
5.58
4.27
3.18
2.22
1.33
0.52
-0.1
-0.46
-0.53
-0.39
-0.25
-0.37
-0.9
-1.87
-3.12
-4.45
-5.69
-6.76
-7.75
-8.76
-9.96
-11.5
-13.45
-15.79
-18.29
-20.52
-21.87
-21.76
-19.84
-16.18
-11.18
-5.53
0.08
5.16
9.43
12.84
15.39
17.06
17.76
17.45
16.18
14.18
11.82
9.49
7.51
6.06
5.18
4.75
4.6
4.54
4.39
4.04
3.41
2.53
1.45
0.27
-0.92
-2.06
-3.09
-4.01
-4.84
-5.69
-6.69
-8.03
-9.82
-12.12
-14.9
-17.95
-20.93
-23.37
-24.65
-24.27
-21.99
-18.06
-13.1
-7.99
-3.45
0.11
2.73
4.67
6.18
7.33
8
8.09
7.64
6.84
5.98
5.26
4.81
4.6
4.64
4.92
5.42
6.09
6.81
7.4
7.74
7.74
7.26
6.23
4.59
2.39
-0.13
-2.63
-4.82
-6.68
-8.49
-10.76
-13.88
-17.88
-22.26
-26.14
-28.59
-28.99
-27.21
-23.6
-18.74
-13.18
-7.36
-1.57
3.9
8.69
12.39
14.67
15.52
15.2
14.2
12.99
11.8
10.66
9.46
8.12
6.7
5.39
4.35
3.69
3.4
3.33
3.37
3.37
3.23
2.84
2.14
1.1
-0.26
-1.86
-3.64
-5.49
-7.4
-9.39
-11.61
-14.14
-17.01
-20.05
-22.84
-24.84
-25.49
-24.5
-21.85
-17.83
-12.87
-7.43
-1.94
3.26
7.84
11.51
14.07
15.47
15.85
15.41
14.42
13.09
11.61
10.18
9.05
8.43
8.48
9.15
10.25
11.45
12.44
13.01
13.07
12.64
11.84
10.82
9.73
8.64
7.61
6.54
5.31
3.7
1.54
-1.32
-4.94
-9.14
-13.58
-17.64
-20.63
-21.95
-21.25
-18.64
-14.57
-9.74
-4.84
-0.36
3.47
6.67
9.43
11.88
14.11
16.06
17.57
18.52
18.88
18.86
18.78
19
19.76
21.19
23.32
26.14
29.63
33.68
37.88
41.45
43.32
42.47
38.27
30.88
21.22
10.69
0.69
-7.94
-15.12
-21.46
-27.88
-35.08
-43.12
-51.33
-58.47
-63.28
-64.83
-62.83
-57.55
-49.66
-39.98
-29.45
-19.05
-9.86
-2.81
1.5
3.06
2.36
0.22
-2.5
-5.11
-7.07
-7.95
-7.51
-5.79
-3.18
-0.44
1.65
2.63
2.55
1.98
1.53
1.62
2.14
2.67
2.71
1.98
0.52
-1.51
-3.93
-6.67
-9.62
-12.44
-14.38
-14.42
-11.63
-5.54
3.54
14.6
26.34
37.74
48.38
58.46
68.51
78.84
89.27
99.03
107.16
112.85
115.78
116.27
115.05
113.14
111.47
110.87
111.77
114.23
117.8
121.72
125.29
128.26
131.23
135.54
142.77
153.88
168.63
185.37
201.65
215.33
225.51
233.15
240.79
251.52
267.57
288.86
312.31
332.27
342.19
336.94
314.78
278.05
232.28
183.63
136.48
91.83
47.51
-0.18
-54.04
-113.99
-176.59
-235.75
-284.66
-318.02
-333.85
-334.57
-326.76
-319.55
-321.7
-338.66
-370.14
-409.41
-444.92
-463.94
-457.17
-422.61
-366.54
-301.59
-242.22
-199.26
-176.04
-167.55
-163.35
-153.02
-131.53
-101.12
-70.11
-49.32
-47.63
-69.55
-113.96
-175.19
-245.24
-316.08
-379.19
-426.91
-453.95
-459.03
-446.3
-423.59
-399.87
-382.62
-376.92
-382.19
-393.97
-406.04
-412.73
-411.12
-399.93
-379.02
-349.38
-314.3
-275.19
-232.08
-183.52
-127.27
-62.34
12.05
96.04
195.23
302.88
404.85
485.07
533.94
558.57
568.61
571.99
574.85
582.14
589.4
596.03
602.47
608.48
612.12
608.69
594
566.4
526.99
477.92
424.11
370.01
317.99
268.73
221.6
177.28
137.97
105.49
79.17
57.38
36.82
13.29
-15.94
-51.55
-91.22
-130.57
-165.58
-193.82
-213.36
-218.31
-205.08
-174.82
-134.3
-92.55
-56.97
-32.09
-20.86
-21.14
-30.38
-47.49
-72.18
-105.01
-147.22
-197.31
-254.84
-319.41
-389.3
-460.74
-527.56
-581.21
-612.88
-616.41
-590.8
-541.33
-477.15
-407.7
-340.12
-278.26
-223.07
-174.09
-130.75
-92.7
-59.7
-30.58
-3.2
24.58
53.75
83.89
113.47
140.63
164.34
184.59
202.68
220.88
241.52
266.26
295.39
327.32
358.65
384.89
401.59
405.95
397.76
379.37
354.63
327.33
299.95
273.35
247.38
221.79
196.99
173.95
153.6
136.14
120.84
106.35
91.42
75.48
58.79
42.26
26.96
13.73
2.96
-5.3
-11.23
-15.05
-16.93
-17.05
-15.62
-13.01
-9.74
-6.36
-3.46
-1.46
-0.54
-0.65
-1.52
-2.77
-4.09
-5.27
-6.22
-6.98
-7.59
-8.11
-8.56
-8.95
-9.3
-9.61
-9.82
-9.87
-9.68
-9.28
-8.74
-8.36
-8.41
-9.19
-10.79
-13.15
-16.04
-19.17
-22.29
-25.23
-27.93
-30.42
-32.77
-35.06
-37.39
-39.77
-42.12
-44.24
-45.8
-46.46
-45.88
-43.86
-40.33
-35.32
-29.04
-21.8
-14.08
-6.41
0.7
6.87
11.92
15.89
18.91
21.11
22.62
23.54
24.03
24.32
24.63
25.16
25.97
27
28.15
29.32
30.45
31.51
32.47
33.19
33.61
33.64
33.32
32.77
32.11
31.39
30.48
29.15
27.06
23.98
19.85
14.86
9.34
3.73
-1.68
-6.73
-11.44
-16
-20.62
-25.49
-30.63
-35.78
-40.41
-43.79
-45.21
-44.16
-40.65
-35.1
-28.27
-20.95
-13.79
-7.11
-1
4.53
9.48
13.73
17.15
19.68
21.34
22.26
22.57
22.35
21.62
20.46
18.97
17.43
16.15
15.38
15.19
15.42
15.79
15.97
15.76
15.07
13.97
12.58
11.02
9.39
7.67
5.76
3.51
0.83
-2.26
-5.59
-8.89
-11.91
-14.5
-16.71
-18.7
-20.73
-23.05
-25.86
-29.22
-32.91
-36.52
-39.35
-40.7
-39.99
-37.01
-31.96
-25.36
-17.92
-10.31
-3.07
3.41
8.84
13.07
15.96
17.52
17.91
17.36
16.21
14.77
13.33
12.08
11.11
10.42
9.92
9.49
8.96
8.21
7.19
5.9
4.45
2.98
1.63
0.47
-0.46
-1.23
-1.93
-2.7
-3.72
-5.11
-7
-9.35
-12
-14.61
-16.9
-18.63
-19.8
-20.69
-21.74
-23.36
-25.71
-28.54
-31.19
-32.82
-32.71
-30.47
-26.24
-20.5
-13.97
-7.31
-1.04
4.53
9.24
12.99
15.72
17.4
18.05
17.77
16.76
15.27
13.57
11.88
10.25
8.69
7.11
5.53
4.03
2.83
2.06
1.77
1.87
2.16
2.49
2.77
2.92
2.85
2.43
1.49
-0.01
-1.99
-4.22
-6.39
-8.25
-9.67
-10.69
-11.51
-12.42
-13.77
-15.75
-18.35
-21.19
-23.61
-24.87
-24.39
-22.02
-18.06
-13.18
-8.11
-3.46
0.51
3.8
6.54
8.86
10.68
11.88
12.29
11.86
10.75
9.3
7.96
7.16
7.24
8.34
10.38
13.02
15.74
17.93
19.06
18.88
17.43
15.1
12.32
9.52
6.93
4.62
2.54
0.61
-1.22
-3.03
-4.89
-6.9
-9.13
-11.66
-14.59
-18.04
-22.21
-27.19
-32.93
-39
-44.71
-49.18
-51.65
-51.77
-49.62
-45.78
-40.95
-35.87
-31.01
-26.66
-22.93
-19.91
-17.76
-16.57
-16.35
-16.9
-17.86
-18.82
-19.47
-19.75
-19.79
-19.88
-20.28
-21.1
-22.21
-23.39
-24.3
-24.65
-24.24
-22.92
-20.64
-17.42
-13.43
-9.01
-4.64
-0.87
1.78
2.91
2.41
0.46
-2.51
-5.88
-9.02
-11.37
-12.56
-12.38
-10.76
-7.73
-3.41
1.93
7.89
14.02
19.91
25.24
29.95
34.08
37.76
41.04
43.88
46.28
48.42
50.73
53.95
58.83
65.84
74.87
85.1
95.18
103.75
109.78
112.99
113.69
112.55
110.16
106.8
102.38
96.59
89.15
79.9
68.9
56.37
42.59
27.95
12.93
-1.84
-15.58
-27.54
-37.19
-44.32
-49.09
-51.95
-53.3
-53.38
-52.09
-49.14
-44.33
-37.82
-30.14
-22.06
-14.23
-6.93
-0.13
6.41
12.74
18.73
24.08
28.62
32.54
36.33
40.63
45.83
51.82
58
63.29
66.66
67.43
65.35
60.44
52.93
43.22
31.8
19.48
7.11
-4.53
-14.99
-24.33
-33.09
-41.97
-51.33
-60.96
-69.96
-77.37
-82.33
-84.44
-84.01
-82.06
-80.11
-79.51
-81.06
-84.29
-88.5
-92.37
-94.46
-93.76
-90.07
-83.97
-75.97
-66.63
-55.9
-45.09
-35.51
-27.95
-22.33
-17.63
-12.56
-5.34
4.43
16.74
28.56
36.99
40.77
40.58
38.12
34.19
28.87
19.44
3.37
-23.87
-64.19
-115.37
-171.53
-225.01
-269.51
-300.41
-317.99
-302.53
-242.9
-141.78
-17.45
105.83
210.64
282.68
329.36
358
373.04
372.84
354.42
319.11
270.44
214.16
155.82
100.34
48.38
-1.09
-52.44
-109.68
-174.79
-247.46
-325.08
-403.71
-477.09
-538.9
-581.74
-600.54
-593.12
-560.89
-508.68
-442.87
-369.89
-294.14
-219.03
-146.46
-78.25
-15.9
40.07
90.39
137
182.04
227.38
273.65
320.96
368.49
413.96
453.23
480.12
487.8
470.98
427.87
360.4
273.34
172.31
62.84
-49.22
-156.73
-250.68
-321.65
-362.97
-373.81
-360.7
-335.45
-310.81
-295.48
-291.05
-291.88
-287.76
-268.41
-228.08
-168.05
-96.89
-27.72
26.08
54.87
54.8
27.22
-23.51
-91.86
-171.62
-255.1
-332.51
-392.96
-427.24
-430.99
-406.88
-363.5
-311.89
-261.33
-216.64
-178.08
-143.45
-110.47
-78.42
-48.23
-21.46
0.68
17.9
30.73
40.13
47.22
52.85
57.76
62.55
67.74
73.76
80.91
89.2
98.37
108.05
117.94
128.05
138.73
150.56
164.07
179.45
196.5
214.59
232.99
251.12
268.84
286.62
305.57
327.2
352.85
382.75
415.2
446.37
470.98
483.97
482.19
465.63
437.39
402.44
365.87
331.34
300.54
273.51
249.52
227.91
208.47
191.31
176.54
164.04
153.29
143.55
134.03
124.17
113.81
103.23
92.97
83.58
75.4
68.33
61.98
55.74
49.1
41.83
34.21
27.06
21.68
19.64
22.14
29.08
38.29
45.3
43.92
28
-6.04
-56.91
-117.65
-176.94
-222.3
-244.05
-238.16
-206.9
-157.33
-98.28
-37.68
18.89
67.97
107.44
135.76
151.98
156.31
150.45
137.14
119.08
98.03
74.64
49.36
23.22
-1.93
-23.94
-41.54
-55.09
-66.11
-75.94
-84.52
-89.92
-89.45
-81.3
-65.81
-45.4
-23.37
-2.41
16.25
32.63
47.32
60.59
72.3
82.08
89.49
94.15
95.68
93.62
87.78
78.49
66.84
54.31
42.14
30.7
19.52
7.74
-5.13
-18.71
-31.87
-43.34
-52.27
-58.39
-61.73
-62.26
-59.55
-52.93
-42
-26.98
-8.71
11.49
32.23
52.15
69.86
83.74
92
92.96
85.44
69.11
44.73
14.17
-20.06
-55.27
-88.72
-117.63
-138.85
-148.53
-142.13
-115.66
-67.55
-0.41
78.12
156.46
221.93
264.36
278.68
265.45
229.78
179.72
124.83
75.14
39.93
25.67
33.85
59.89
94.1
124.68
141.73
140.26
120.76
87.5
45.79
-0.13
-47.9
-96.73
-146.6
-197.63
-249.85
-302.9
-355.35
-404.31
-445.93
-476.08
-491.64
-491.27
-475.78
-447.82
-411.31
-370.74
-330.4
-293.62
-261.97
-235.02
-210.73
-186.55
-160.59
-132.47
-103.2
-74.49
-47.97
-24.74
-5.48
9.32
19.29
24.39
25.49
24.39
23.46
24.86
29.76
37.94
47.94
57.78
65.58
70.26
71.56
69.94
66.25
61.48
56.64
52.63
50.18
49.42
49.84
50.21
49.12
45.78
40.58
35.32
32.34
33.38
38.16
44.08
46.77
41.93
27.26
3.6
-24.97
-52.59
-73.66
-84.67
-84.7
-74.72
-56.33
-31.09
-0.91
31.07
59.96
80.11
87.08
79.81
61.42
37.88
15.48
-1.8
-13.29
-20.94
-27.3
-33.83
-40.25
-45.04
-46.63
-44.24
-38.29
-30.04
-21.33
-13.97
-9.13
-7.18
-7.59
-9.23
-10.76
-11.06
-9.36
-5.29
1.32
10.47
21.85
34.7
47.69
59.16
67.58
72.07
72.77
70.72
67.52
64.55
62.68
61.88
61.45
60.38
57.67
52.78
45.8
37.46
28.86
21.24
15.56
12.1
10.43
9.49
8.03
5
-0.06
-7.06
-15.38
-24.16
-32.47
-39.45
-44.52
-47.35
-47.93
-46.48
-43.31
-38.72
-32.92
-26.11
-18.33
-9.64
-0.05
10.32
21.11
31.69
41.11
48.41
52.84
54.18
52.7
49.13
44.28
38.93
33.69
29.03
25.32
22.69
21.06
20.09
19.38
18.71
18.09
17.79
18.02
18.77
19.61
19.84
18.66
15.6
10.62
4.09
-3.28
-10.69
-17.2
-21.97
-24.19
-23.43
-19.81
-14.16
-7.88
-2.48
0.82
1.56
0.07
-2.8
-5.99
-8.66
-10.2
-10.32
-8.96
-6.42
-3.39
-0.99
-0.52
-2.98
-8.67
-16.94
-26.31
-34.95
-41.29
-44.46
-44.38
-41.62
-36.89
-30.88
-24
-16.67
-9.33
-2.62
2.85
6.78
9.3
11.05
12.86
15.4
18.93
23.16
27.48
31.15
33.61
34.43
33.27
29.69
23.21
13.61
1.33
-12.18
-24.65
-33.43
-36.64
-33.61
-25.33
-14.06
-2.4
7.5
14.56
18.6
20.06
19.35
16.7
12.19
6.07
-1.01
-8.13
-14.23
-18.63
-21.06
-21.75
-21.07
-19.32
-16.68
-13.26
-9.38
-5.53
-2.34
-0.18
0.91
1.31
1.68
2.6
4.56
7.58
11.49
15.76
19.66
22.42
23.31
21.88
18.08
12.47
6.05
0.19
-3.74
-4.76
-2.6
2.14
8.09
13.58
17.16
18.02
16.2
12.35
7.39
2.1
-3.16
-8.4
-13.86
-19.67
-25.75
-31.66
-36.62
-39.72
-40
-36.86
-30.22
-20.71
-9.61
1.42
10.74
17.17
20.23
20.21
17.98
14.79
11.83
9.99
9.62
10.53
12.02
13.09
12.8
10.59
6.51
1.29
-3.86
-7.63
-9.19
-8.35
-5.79
-2.75
-0.63
-0.46
-2.6
-6.7
-11.77
-16.63
-20.15
-21.67
-20.98
-18.46
-14.86
-11.01
-7.61
-4.96
-2.89
-0.88
1.7
5.22
9.58
14.14
17.93
19.91
19.5
16.73
12.3
7.33
2.95
-0.02
-1.33
-1.14
-0.01
1.33
2.18
1.93
0.24
-2.89
-6.99
-11.32
-15.01
-17.48
-18.67
-18.95
-18.98
-19.18
-19.56
-19.63
-18.65
-15.99
-11.37
-5.07
2.23
9.54
15.83
20.2
22.01
21.09
17.77
12.88
7.55
2.99
0.08
-0.82
0.01
1.75
3.36
3.9
2.87
0.31
-3.18
-6.72
-9.36
-10.5
-9.97
-8.16
-5.93
-4.36
-4.5
-6.93
-11.57
-17.58
-23.56
-27.98
-29.59
-27.8
-22.78
-15.38
-6.89
1.29
7.96
12.44
14.65
15.14
14.79
14.44
14.52
14.85
14.82
13.63
10.82
6.36
0.81
-4.92
-9.79
-12.92
-13.77
-12.29
-9
-4.83
-0.92
1.77
2.67
1.78
-0.46
-3.5
-6.81
-10.06
-13.01
-15.48
-17.23
-18.09
-17.93
-16.73
-14.53
-11.36
-7.2
-2.03
4.04
10.69
17.33
23.19
27.55
29.85
30.02
28.35
25.62
22.7
20.42
19.23
19.08
19.53
19.82
19.22
17.19
13.6
8.79
3.49
-1.37
-4.93
-6.68
-6.69
-5.56
-4.29
-3.91
-5.2
-8.44
-13.24
-18.75
-23.78
-27.16
-28.06
-26.14
-21.62
-15.21
-7.96
-0.93
4.83
8.67
10.35
10.12
8.65
6.89
5.79
6.07
8.02
11.37
15.49
19.52
22.69
24.56
25.11
24.75
23.98
23.12
22.11
20.46
17.55
12.92
6.73
-0.31
-7.02
-12.26
-15.28
-16.01
-14.98
-13.15
-11.59
-11.18
-12.43
-15.37
-19.48
-23.79
-27.05
-28.07
-25.97
-20.63
-12.66
-3.38
5.69
13.24
18.57
21.67
23.06
23.47
23.51
23.49
23.38
22.96
21.93
20.14
17.68
14.95
12.58
11.12
10.95
12.05
14.03
16.46
18.88
21.07
22.82
23.76
23.39
21.27
17.33
12.02
6.35
1.31
-2.45
-5.03
-7.07
-9.39
-12.51
-16.36
-20.36
-23.61
-25.35
-25.1
-22.83
-18.88
-13.75
-8.08
-2.45
2.64
6.87
10.05
12.17
13.36
13.8
13.7
13.18
12.4
11.46
10.52
9.73
9.21
9.02
9.02
9.05
8.87
8.34
7.48
6.39
5.19
3.92
2.55
0.92
-1.01
-3.23
-5.65
-8.21
-10.92
-13.85
-17.05
-20.27
-23.04
-24.68
-24.59
-22.42
-18.23
-12.51
-5.99
0.51
6.37
11.13
14.68
17.08
18.5
19.12
19.01
18.24
16.9
15.19
13.38
11.75
10.49
9.62
9.01
8.47
7.89
7.2
6.39
5.41
4.17
2.62
0.69
-1.52
-3.93
-6.4
-8.91
-11.5
-14.21
-17.03
-19.76
-22.08
-23.6
-23.96
-22.94
-20.48
-16.71
-11.9
-6.47
-0.91
4.27
8.66
12.06
14.43
15.9
16.55
16.41
15.45
13.71
11.39
8.91
6.77
5.31
4.6
4.41
4.39
4.19
3.69
2.91
1.95
0.89
-0.27
-1.53
-2.94
-4.5
-6.28
-8.39
-10.95
-13.99
-17.31
-20.48
-22.91
-24.09
-23.72
-21.78
-18.48
-14.07
-8.92
-3.36
2.16
7.13
11.09
13.76
15.15
15.51
15.24
14.72
14.2
13.77
13.41
13.03
12.54
11.9
11.06
10.03
8.8
7.42
5.89
4.28
2.59
0.9
-0.75
-2.34
-3.87
-5.39
-7.03
-8.91
-11.19
-13.94
-17.15
-20.57
-23.72
-25.92
-26.53
-25.13
-21.72
-16.77
-11.01
-5.21
0.08
4.59
8.27
11.16
13.27
14.63
15.21
15.06
14.29
13.03
11.42
9.62
7.82
6.19
4.89
3.99
3.49
3.29
3.23
3.14
2.87
2.32
1.42
0.19
-1.32
-2.96
-4.59
-6.09
-7.45
-8.79
-10.28
-12.07
-14.14
-16.22
-17.87
-18.59
-17.97
-15.93
-12.65
-8.55
-4.11
0.27
4.29
7.78
10.59
12.59
13.65
13.66
12.62
10.63
7.96
5.04
2.37
0.4
-0.6
-0.65
-0.11
0.58
1.02
1.04
0.75
0.37
0.14
0.1
0.19
0.24
0.16
-0.07
-0.45
-0.99
-1.84
-3.19
-5.23
-7.97
-11.21
-14.44
-16.99
-18.21
-17.66
-15.29
-11.42
-6.69
-1.81
2.6
6.17
8.82
10.66
11.93
12.81
13.42
13.69
13.5
12.69
11.18
9.09
6.68
4.32
2.26
0.71
-0.37
-1.03
-1.37
-1.45
-1.27
-0.92
-0.53
-0.3
-0.4
-0.88
-1.69
-2.69
-3.8
-5.04
-6.52
-8.35
-10.58
-13.14
-15.83
-18.37
-20.39
-21.55
-21.51
-20.05
-17.07
-12.77
-7.53
-1.94
3.33
7.75
10.97
12.86
13.51
13.17
12.12
10.65
9.06
7.53
6.24
5.26
4.61
4.2
3.94
3.67
3.27
2.7
1.93
1.02
0.03
-0.96
-1.92
-2.83
-3.71
-4.63
-5.66
-6.92
-8.48
-10.41
-12.67
-15.06
-17.31
-19
-19.73
-19.16
-17.12
-13.67
-9.11
-3.96
1.17
5.66
9.14
11.43
12.65
13.06
12.91
12.38
11.46
10.16
8.5
6.64
4.8
3.21
2.02
1.25
0.83
0.61
0.45
0.21
-0.16
-0.7
-1.37
-2.09
-2.83
-3.58
-4.48
-5.65
-7.25
-9.29
-11.63
-14.04
-16.22
-17.93
-19
-19.3
-18.71
-17.14
-14.57
-11.05
-6.82
-2.2
2.39
6.59
10.09
12.7
14.36
15.1
15.01
14.17
12.68
10.68
8.37
6.01
3.89
2.24
1.15
0.56
0.29
0.17
0.02
-0.22
-0.56
-1.02
-1.6
-2.39
-3.43
-4.8
-6.49
-8.49
-10.74
-13.11
-15.45
-17.47
-18.89
-19.36
-18.66
-16.72
-13.66
-9.77
-5.38
-0.89
3.38
7.07
9.92
11.69
12.3
11.91
10.78
9.32
7.79
6.36
4.99
3.65
2.37
1.29
0.62
0.4
0.55
0.77
0.79
0.42
-0.34
-1.31
-2.36
-3.42
-4.54
-5.81
-7.3
-9.03
-10.96
-13.04
-15.18
-17.22
-18.89
-19.83
-19.66
-18.17
-15.34
-11.39
-6.67
-1.55
3.57
8.36
12.46
15.57
17.5
18.3
18.16
17.43
16.44
15.35
14.19
12.84
11.2
9.32
7.38
5.66
4.35
3.52
3.04
2.69
2.22
1.49
0.45
-0.88
-2.38
-3.97
-5.55
-7.08
-8.52
-9.93
-11.43
-13.18
-15.35
-17.92
-20.64
-23.03
-24.42
-24.22
-22.08
-18.08
-12.7
-6.69
-0.87
4.14
8.02
10.77
12.58
13.69
14.25
14.31
13.84
12.87
11.51
9.93
8.36
6.97
5.9
5.23
5.05
5.39
6.24
7.43
8.6
9.38
9.43
8.61
7.02
5
2.84
0.77
-1.21
-3.28
-5.62
-8.37
-11.44
-14.64
-17.6
-19.96
-21.37
-21.54
-20.32
-17.71
-13.93
-9.36
-4.51
0.16
4.29
7.67
10.24
11.99
12.97
13.18
12.67
11.5
9.79
7.71
5.5
3.44
1.81
0.82
0.59
1.01
1.87
2.81
3.51
3.68
3.23
2.2
0.74
-0.9
-2.54
-4
-5.3
-6.52
-7.88
-9.62
-11.89
-14.7
-17.8
-20.78
-23.03
-23.96
-23.07
-20.18
-15.46
-9.45
-2.96
3.19
8.32
12.09
14.48
15.71
16.06
15.78
15.02
13.85
12.39
10.77
9.21
7.86
6.81
6.06
5.48
4.98
4.47
3.95
3.39
2.85
2.28
1.6
0.72
-0.45
-1.9
-3.61
-5.47
-7.47
-9.65
-12.09
-14.93
-18.1
-21.33
-24.1
-25.75
-25.7
-23.6
-19.52
-13.91
-7.46
-0.91
5.09
10.16
14.19
17.28
19.61
21.27
22.3
22.57
21.98
20.52
18.34
15.77
13.2
10.93
9.1
7.75
6.76
6.07
5.63
5.39
5.33
5.3
5.17
4.78
4.09
3.16
2.13
1.09
0.01
-1.23
-2.89
-5.16
-8.08
-11.45
-14.86
-17.76
-19.6
-20
-18.75
-15.95
-11.89
-7.07
-2.04
2.64
6.53
9.39
11.15
11.97
12.07
11.71
11.07
10.22
9.17
7.94
6.62
5.31
4.19
3.31
2.68
2.22
1.83
1.5
1.19
0.92
0.59
0.09
-0.75
-2.01
-3.67
-5.61
-7.66
-9.72
-11.75
-13.76
-15.72
-17.42
-18.56
-18.71
-17.58
-15.04
-11.27
-6.63
-1.67
3.14
7.43
10.97
13.68
15.48
16.36
16.29
15.33
13.62
11.37
8.88
6.39
4.16
2.36
1.12
0.46
0.32
0.51
0.78
0.92
0.77
0.3
-0.41
-1.26
-2.18
-3.24
-4.55
-6.26
-8.41
-10.98
-13.71
-16.29
-18.32
-19.4
-19.22
-17.6
-14.59
-10.5
-5.81
-1.05
3.36
7.19
10.4
12.95
14.8
15.73
15.58
14.25
11.96
9.18
6.48
4.38
3.02
2.21
1.4
-0.03
-2.49
-5.94
-9.82
-13.31
-15.61
-16.47
-16.3
-16.09
-16.93
-19.56
-23.9
-29.19
-34.31
-38.28
-40.62
-41.45
-41.34
-41.03
-41.23
-42.54
-45.03
-47.77
-48.34
-43.2
-28.81
-3.39
31.47
70.62
106.7
132.69
144.38
141.62
127.68
107.47
85.41
64.32
45.43
29.11
15.75
5.89
-0.09
-2.56
-2.7
-2.21
-2.66
-4.8
-8.38
-12.36
-15.5
-17.03
-16.93
-16.02
-15.42
-16.15
-18.58
-22.32
-26.37
-29.5
-30.72
-29.59
-26.31
-21.52
-16.07
-10.64
-5.64
-1.18
2.74
6.12
8.91
10.98
12.21
12.49
11.85
10.42
8.41
6.14
3.89
2
0.66
-0.04
-0.16
0.08
0.44
0.64
0.51
-0.02
-0.9
-2.03
-3.28
-4.61
-6.08
-7.75
-9.7
-11.89
-14.18
-16.31
-17.95
-18.75
-18.37
-16.66
-13.56
-9.32
-4.33
0.87
5.79
10.04
13.39
15.72
17.01
17.31
16.69
15.34
13.5
11.42
9.33
7.36
5.6
4.02
2.68
1.59
0.81
0.37
0.15
0.05
-0.17
-0.65
-1.52
-2.79
-4.44
-6.4
-8.65
-11.22
-14.1
-17.23
-20.35
-23.09
-24.94
-25.41
-24.18
-21.15
-16.54
-10.82
-4.65
1.33
6.58
10.76
13.81
15.76
16.72
16.8
16.1
14.74
12.97
11.08
9.37
8.03
7.09
6.43
5.9
5.45
5.08
4.83
4.71
4.58
4.32
3.78
3.02
2.14
1.22
0.18
-1.28
-3.57
-7.02
-11.62
-17
-22.4
-26.91
-29.67
-30.13
-28.15
-23.89
-17.89
-10.78
-3.3
3.9
10.26
15.35
18.96
21.02
21.71
21.29
20.17
18.69
17.1
15.55
14.02
12.48
10.89
9.31
7.79
6.47
5.36
4.44
3.6
2.73
1.77
0.73
-0.33
-1.38
-2.43
-3.57
-5
-6.88
-9.33
-12.26
-15.4
-18.3
-20.39
-21.24
-20.55
-18.31
-14.74
-10.25
-5.26
-0.21
4.56
8.79
12.25
14.81
16.36
16.89
16.47
15.22
13.36
11.14
8.84
6.72
4.98
3.66
2.74
2.15
1.8
1.66
1.66
1.7
1.64
1.32
0.64
-0.37
-1.62
-3.01
-4.52
-6.23
-8.27
-10.73
-13.48
-16.22
-18.48
-19.73
-19.61
-17.89
-14.67
-10.23
-5.08
0.26
5.25
9.5
12.8
15.08
16.4
16.84
16.48
15.43
13.82
11.85
9.77
7.87
6.33
5.28
4.66
4.33
4.1
3.77
3.21
2.33
1.15
-0.3
-1.92
-3.61
-5.3
-7
-8.79
-10.79
-13.12
-15.76
-18.53
-21.04
-22.75
-23.2
-22.05
-19.23
-14.96
-9.66
-3.87
1.86
7.06
11.39
14.62
16.71
17.7
17.67
16.77
15.16
13.04
10.68
8.44
6.59
5.35
4.73
4.55
4.55
4.49
4.21
3.64
2.86
1.9
0.86
-0.15
-1.09
-1.99
-3.03
-4.5
-6.68
-9.66
-13.26
-16.96
-20.08
-21.95
-22.13
-20.48
-17.13
-12.49
-7
-1.23
4.33
9.19
12.95
15.44
16.63
16.71
15.95
14.66
13.08
11.36
9.62
7.96
6.51
5.39
4.72
4.48
4.57
4.8
4.96
4.94
4.65
4.18
3.64
3.16
2.79
2.46
1.97
1.01
-0.73
-3.44
-7.06
-11.3
-15.57
-19.17
-21.4
-21.76
-20.06
-16.47
-11.51
-5.81
-0.08
5.13
9.47
12.73
14.88
15.93
16.03
15.38
14.31
13.13
12.06
11.14
10.25
9.21
7.9
6.38
4.84
3.51
2.56
1.96
1.57
1.15
0.53
-0.38
-1.54
-2.89
-4.41
-6.18
-8.28
-10.76
-13.52
-16.28
-18.62
-20.03
-20.1
-18.6
-15.58
-11.34
-6.34
-1.11
3.93
8.49
12.37
15.5
17.76
19.09
19.34
18.53
16.77
14.36
11.71
9.23
7.21
5.74
4.79
4.2
3.82
3.56
3.33
3.07
2.62
1.84
0.56
-1.28
-3.6
-6.24
-9.02
-11.84
-14.63
-17.39
-20.04
-22.39
-24.1
-24.79
-24.11
-21.93
-18.36
-13.73
-8.53
-3.15
2.07
6.9
11.13
14.51
16.81
17.82
17.58
16.3
14.37
12.22
10.2
8.55
7.31
6.44
5.78
5.2
4.56
3.85
3.14
2.5
1.93
1.3
0.41
-0.9
-2.64
-4.64
-6.67
-8.59
-10.44
-12.33
-14.44
-16.76
-19.11
-21.16
-22.55
-22.98
-22.2
-20.1
-16.58
-11.77
-5.93
0.43
6.63
12.02
16.08
18.64
19.84
20.1
19.82
19.34
18.77
18.05
17.12
15.92
14.59
13.26
12.07
11.03
10.02
8.9
7.6
6.21
4.88
3.74
2.8
1.89
0.75
-0.81
-2.88
-5.36
-8.06
-10.89
-13.79
-16.7
-19.4
-21.46
-22.35
-21.6
-19.08
-15.05
-10.12
-4.95
-0.02
4.46
8.56
12.3
15.59
18.08
19.42
19.36
17.96
15.57
12.7
9.78
7.06
4.66
2.61
1.07
0.32
0.57
1.78
3.57
5.34
6.47
6.7
6.08
5
3.87
2.93
2.21
1.54
0.76
-0.35
-1.95
-4.19
-7.14
-10.6
-14.25
-17.63
-20.46
-22.66
-24.35
-25.61
-26.38
-26.32
-25.08
-22.54
-18.95
-14.91
-11.13
-8.04
-5.77
-4.14
-2.79
-1.46
-0.06
1.36
2.75
4.12
5.55
7.07
8.65
10.1
11.2
11.77
11.9
11.85
11.99
12.72
14.1
15.86
17.32
17.61
16.01
12.23
6.58
-0.04
-6.37
-11.29
-13.96
-14.14
-12.18
-8.59
-3.93
1.41
7.01
12.29
16.44
18.62
18.34
15.66
11.32
6.29
1.5
-2.55
-5.79
-8.3
-10.03
-10.7
-10.13
-8.3
-5.7
-3.1
-1.3
-0.71
-1.31
-2.61
-4.07
-5.34
-6.28
-7.26
-8.62
-10.5
-12.73
-14.64
-15.51
-14.81
-12.63
-9.51
-6.3
-3.63
-1.6
0.13
2.25
5.24
9.27
14.07
19.05
23.48
26.67
28.12
27.55
25.06
20.96
15.88
10.38
5.1
0.56
-2.86
-4.8
-5.27
-4.32
-2.42
-0.21
1.62
2.54
2.41
1.3
-0.46
-2.72
-5.39
-8.66
-12.6
-17.08
-21.62
-25.4
-27.59
-27.48
-24.92
-20.11
-13.59
-6.15
1.43
8.24
13.45
16.32
16.62
14.53
10.96
7.07
4
2.45
2.41
3.35
4.44
5.07
5.04
4.52
3.85
3.24
2.72
2.13
1.38
0.39
-0.69
-1.74
-2.62
-3.39
-4.25
-5.48
-7.39
-10
-13.04
-15.95
-18.07
-18.82
-17.88
-15.29
-11.29
-6.34
-0.9
4.46
9.23
12.89
15.11
15.94
15.67
14.87
14.01
13.32
12.69
11.73
10.14
7.8
4.96
2.01
-0.6
-2.59
-3.99
-4.98
-5.83
-6.55
-7.05
-7.08
-6.5
-5.45
-4.29
-3.51
-3.44
-4.18
-5.57
-7.4
-9.43
-11.55
-13.55
-15.09
-15.65
-14.64
-11.71
-6.94
-0.95
5.38
11.3
16.29
20.24
23.06
24.6
24.51
22.47
18.54
13.23
7.53
2.43
-1.37
-3.78
-5.16
-6.02
-6.78
-7.46
-7.81
-7.53
-6.55
-5.17
-4.05
-3.89
-5.22
-8.06
-11.95
-16.06
-19.49
-21.56
-21.88
-20.46
-17.56
-13.56
-8.92
-4.06
0.61
4.71
7.93
10.06
10.99
10.79
9.73
8.14
6.42
4.85
3.54
2.52
1.67
0.91
0.14
-0.7
-1.66
-2.7
-3.7
-4.47
-4.87
-4.9
-4.79
-4.95
-5.84
-7.73
-10.57
-13.97
-17.25
-19.71
-20.78
-20.12
-17.73
-13.85
-8.89
-3.36
2.22
7.41
11.85
15.29
17.6
18.77
18.9
18.2
16.92
15.25
13.34
11.32
9.3
7.43
5.82
4.48
3.36
2.32
1.3
0.29
-0.6
-1.3
-1.79
-2.18
-2.63
-3.34
-4.53
-6.31
-8.7
-11.55
-14.53
-17.11
-18.74
-18.97
-17.56
-14.67
-10.68
-6.15
-1.58
2.61
6.17
9.07
11.27
12.83
13.71
13.88
13.36
12.28
10.97
9.75
8.94
8.56
8.46
8.34
7.97
7.28
6.36
5.34
4.27
3.13
1.75
0.04
-2.1
-4.66
-7.63
-10.93
-14.44
-17.92
-20.96
-23.15
-24.02
-23.33
-21.02
-17.31
-12.62
-7.44
-2.29
2.5
6.69
10.18
12.94
14.9
16
16.2
15.58
14.33
12.73
11.05
9.49
8.2
7.19
6.49
6.05
5.8
5.55
5.08
4.18
2.74
0.78
-1.56
-4.06
-6.57
-9.05
-11.54
-14.13
-16.85
-19.57
-21.96
-23.56
-23.84
-22.44
-19.22
-14.41
-8.54
-2.3
3.62
8.67
12.55
15.2
16.69
17.11
16.6
15.2
13.01
10.21
7.1
4.11
1.65
0.11
-0.36
0.24
1.69
3.69
5.86
7.86
9.29
9.82
9.27
7.62
5.12
2.21
-0.64
-3.13
-5.21
-7.13
-9.28
-11.95
-15.18
-18.58
-21.47
-23.06
-22.73
-20.26
-15.88
-10.24
-4.16
1.59
6.5
10.36
13.19
15.16
16.41
17.02
17.08
16.66
15.91
15
14.17
13.54
13.2
13.04
12.94
12.66
12.07
11.11
9.83
8.39
6.9
5.49
4.12
2.72
1.14
-0.68
-2.71
-4.87
-7.01
-9.16
-11.36
-13.75
-16.4
-19.14
-21.58
-23.12
-23.23
-21.55
-18.07
-13.03
-6.92
-0.32
6.19
12.05
16.81
20.1
21.81
22.08
21.27
19.84
18.14
16.37
14.55
12.66
10.74
9.02
7.77
7.18
7.24
7.66
8.07
8.1
7.62
6.67
5.47
4.2
2.95
1.69
0.31
-1.28
-3.09
-5.03
-7.03
-9.03
-11.06
-13.23
-15.55
-17.97
-20.19
-21.79
-22.28
-21.33
-18.85
-15.01
-10.24
-5.03
0.12
4.83
8.82
11.97
14.23
15.61
16.23
16.16
15.49
14.35
12.9
11.33
9.81
8.54
7.55
6.85
6.39
6.14
6.11
6.33
6.72
7.06
7.05
6.34
4.8
2.45
-0.38
-3.29
-5.88
-7.88
-9.26
-10.09
-10.59
-10.99
-11.58
-12.6
-14.14
-16.09
-18.01
-19.25
-19.13
-17.23
-13.54
-8.52
-2.93
2.49
7.19
10.94
13.7
15.49
16.29
16.09
14.96
13.13
10.99
8.94
7.3
6.21
5.6
5.33
5.22
5.23
5.35
5.63
6.08
6.67
7.25
7.65
7.73
7.33
6.46
5.1
3.35
1.31
-0.9
-3.16
-5.36
-7.47
-9.56
-11.71
-14.03
-16.5
-18.94
-21.06
-22.46
-22.85
-22.01
-19.91
-16.63
-12.35
-7.28
-1.7
4
9.36
13.81
16.87
18.15
17.67
15.71
12.84
9.69
6.72
4.23
2.24
0.74
-0.27
-0.7
-0.4
0.71
2.54
4.78
7.02
8.85
10.03
10.46
10.25
9.64
8.82
8.01
7.2
6.3
5.07
3.21
0.57
-2.86
-6.76
-10.66
-14.02
-16.6
-18.3
-19.3
-19.72
-19.48
-18.37
-16.06
-12.5
-7.87
-2.65
2.52
7.07
10.51
12.56
13.11
12.38
10.88
9.41
8.71
9.1
10.41
11.82
12.51
11.87
9.93
7.21
4.42
2.15
0.51
-0.62
-1.59
-2.59
-3.74
-4.89
-5.86
-6.51
-6.74
-6.69
-6.53
-6.62
-7.22
-8.54
-10.68
-13.47
-16.69
-19.81
-22.19
-23.02
-21.72
-17.89
-11.77
-4.17
3.86
11.21
17.2
21.48
24.02
24.85
24.05
21.78
18.26
13.99
9.46
5.16
1.39
-1.71
-3.94
-5.12
-4.91
-3.16
-0.03
3.85
7.54
10.05
10.64
9.1
5.71
1.16
-3.76
-8.26
-11.97
-14.75
-16.82
-18.51
-20.07
-21.54
-22.64
-22.97
-22.03
-19.57
-15.59
-10.44
-4.72
0.9
5.76
9.33
11.38
12.01
11.58
10.67
9.89
9.63
10
10.7
11.26
11.13
10.02
7.97
5.43
3.08
1.47
0.95
1.32
2.06
2.45
2
0.52
-1.8
-4.48
-7.24
-9.84
-12.32
-14.75
-17.03
-18.86
-19.85
-19.68
-18.38
-16.2
-13.41
-10.15
-6.31
-1.77
3.33
8.35
12.41
14.68
14.83
13.26
10.81
8.48
7
6.63
7.27
8.56
10.05
11.22
11.57
10.71
8.6
5.72
2.74
0.4
-0.99
-1.72
-2.46
-3.84
-6.14
-8.99
-11.64
-13.51
-14.39
-14.68
-15.15
-16.36
-18.49
-21.11
-23.49
-24.88
-24.96
-23.75
-21.56
-18.68
-15.1
-10.67
-5.23
0.96
7.21
12.57
16.22
17.85
17.71
16.5
14.91
13.38
11.95
10.44
8.71
6.81
4.93
3.28
1.94
0.81
-0.29
-1.56
-3.14
-4.98
-6.9
-8.59
-9.83
-10.55
-10.95
-11.47
-12.47
-14.13
-16.16
-17.97
-18.83
-18.18
-15.82
-11.89
-6.89
-1.32
4.2
9.26
13.5
16.74
18.95
20.15
20.48
19.94
18.58
16.47
13.77
10.78
7.86
5.31
3.26
1.68
0.39
-0.75
-1.85
-2.86
-3.68
-4.31
-4.85
-5.56
-6.65
-8.19
-9.96
-11.68
-13.11
-14.25
-15.34
-16.64
-18.21
-19.72
-20.46
-19.7
-16.89
-12.04
-5.75
0.97
7.16
12.16
15.79
18.06
19.02
18.55
16.57
13.31
9.47
6.09
3.95
3.29
3.49
3.54
2.68
0.78
-1.51
-3.27
-3.88
-3.38
-2.38
-1.63
-1.62
-2.42
-3.85
-5.7
-7.84
-10.3
-13.11
-16.08
-18.83
-20.79
-21.35
-20.12
-16.97
-12.24
-6.59
-0.8
4.46
8.82
12.19
14.78
16.71
18.16
19.09
19.45
19.23
18.48
17.35
15.97
14.43
12.76
11.03
9.33
7.85
6.76
6.12
5.84
5.6
5.12
4.17
2.73
0.99
-0.89
-2.81
-4.88
-7.25
-10.07
-13.2
-16.31
-18.88
-20.38
-20.46
-18.85
-15.67
-11.1
-5.54
0.49
6.45
11.89
16.59
20.53
23.81
26.44
28.2
28.78
27.9
25.66
22.52
19.24
16.53
14.83
14.14
14.17
14.53
14.77
14.44
13.02
10.11
5.64
0.08
-5.48
-9.85
-12.14
-12.34
-11.27
-10.23
-10.4
-12.34
-16
-20.9
-26.58
-32.71
-39.07
-45.24
-50.47
-53.82
-54.44
-52.11
-47.18
-40.59
-33.37
-26.33
-19.88
-14.12
-9.15
-5.09
-2.16
-0.33
0.76
1.84
3.76
7.1
11.97
17.89
24.18
30.09
35.28
39.66
43.3
46.23
48.27
49.12
48.45
46.11
42.18
36.88
30.49
23.27
15.37
6.94
-1.77
-10.47
-18.72
-26.18
-32.51
-37.45
-40.7
-41.91
-40.71
-36.92
-30.81
-23.14
-15.07
-7.71
-1.78
2.71
6.34
9.9
13.92
18.29
22.3
24.87
24.92
21.93
16.05
8.17
-0.35
-7.97
-13.42
-16.07
-16.12
-14.6
-12.92
-12.44
-13.79
-16.73
-20.05
-21.97
-20.68
-14.98
-4.82
8.57
22.84
35.31
43.78
47.29
46.14
41.41
34.12
24.56
12.36
-2.79
-20.09
-37.09
-50.23
-56.09
-52.95
-41.65
-25.35
-8.07
7.02
18.72
27.72
35.4
42.25
46.87
46.43
38.21
21.45
-1.52
-25.87
-46.15
-58.47
-61.77
-57.72
-49.3
-39.12
-28.55
-17.81
-6.97
3.3
11.45
15.6
14.47
8.06
-2.26
-14.27
-25.58
-34.4
-39.8
-41.8
-41.05
-38.43
-34.78
-30.62
-26.21
-21.58
-16.79
-12.08
-7.93
-5.01
-3.9
-4.9
-7.75
-11.73
-15.72
-18.67
-19.82
-18.92
-16.41
-13.24
-10.73
-10.11
-12.05
-16.2
-21.06
-24.24
-23.31
-16.86
-4.92
10.75
27.49
42.87
55.58
65.67
74.36
83.58
95.06
109.7
126.91
144.15
157.27
161.67
154.13
134.33
105.47
73.17
43.4
20.25
4.96
-3.6
-7.66
-9.02
-8.6
-6.83
-4.31
-2.08
-1.33
-2.65
-5.58
-9.01
-11.49
-12.13
-10.93
-8.72
-6.62
-5.71
-6.64
-9.33
-13.17
-17.19
-20.45
-22.33
-22.84
-22.49
-22.02
-22.19
-23.39
-25.6
-28.42
-31.3
-33.73
-35.29
-35.71
-34.7
-32.04
-27.61
-21.55
-14.26
-6.42
1.24
8.1
13.8
18.23
21.38
23.25
23.82
23.06
21.14
18.38
15.24
12.12
9.27
6.74
4.43
2.22
0.04
-2.06
-3.97
-5.6
-6.94
-8.03
-9.03
-10.09
-11.33
-12.9
-14.86
-17.3
-20.15
-23.3
-26.43
-29.11
-30.82
-31.12
-29.77
-26.83
-22.67
-17.92
-13.25
-9.26
-6.32
-4.54
-3.78
-3.77
-4.24
-5.11
-6.48
-8.64
-11.8
-15.87
-20.43
-24.75
-28.22
-30.65
-32.46
-34.62
-38.06
-43.36
-50.23
-57.82
-64.95
-70.88
-75.59
-79.86
-84.9
-91.74
-100.81
-111.91
-124.47
-137.75
-150.94
-162.83
-171.4
-174.09
-168.26
-152.21
-125.84
-90.64
-48.65
-1.38
50.6
106.61
164.09
217.64
259.76
283.54
285.79
268.72
239.16
205.39
173.72
146.18
121.01
95.02
66.52
37.03
11.14
-5.62
-9.13
1.59
24.13
53.88
85.82
116
142.15
163
177.54
185.26
187.25
187.01
190.05
201.47
222.93
250.67
276.39
290.75
287.45
265.81
230.09
186.36
139.21
90.25
39.33
-13.04
-63.84
-107.91
-140.13
-158.07
-163.13
-159.79
-153.46
-148.09
-144.83
-142.45
-138.87
-132.83
-124.75
-116.4
-109.82
-106.1
-104.79
-104.27
-102.67
-98.8
-92.77
-85.87
-79.86
-76.12
-74.96
-75.47
-75.87
-74.4
-69.88
-62.24
-52.38
-41.76
-31.84
-23.63
-17.46
-13.03
-9.76
-7.03
-4.57
-2.44
-0.99
-0.61
-1.48
-3.46
-6.12
-8.98
-11.6
-13.79
-15.45
-16.5
-16.78
-16.05
-14.19
-11.31
-7.84
-4.38
-1.55
0.3
1.14
1.18
0.69
-0.2
-1.45
-3.04
-4.73
-6.1
-6.58
-5.78
-3.62
-0.39
3.35
7.04
10.27
12.84
14.7
15.73
15.85
14.92
12.99
10.28
7.23
4.37
2.1
0.59
-0.32
-0.95
-1.66
-2.63
-3.83
-4.96
-5.65
-5.72
-5.23
-4.5
-3.9
-3.68
-3.79
-3.95
-3.95
-3.78
-3.69
-3.98
-4.69
-5.35
-5.09
-2.97
1.6
8.49
16.98
25.88
33.96
40.07
43.24
42.73
38.09
29.44
17.59
4.17
-8.68
-18.71
-24.1
-23.99
-18.51
-8.87
3.15
15.51
26.45
34.71
39.7
41.44
40.39
37.27
32.96
28.31
24.06
20.7
18.37
16.87
15.82
14.78
13.6
12.45
11.83
12.45
14.88
19.32
25.39
32.29
39.02
44.8
49.25
52.5
54.87
56.55
57.56
57.68
56.76
54.95
52.67
50.4
48.35
46.42
44.13
40.84
35.8
28.18
17.07
1.64
-18.57
-43.2
-70.87
-99.36
-126.04
-148.7
-166.02
-177.92
-185.22
-189.17
-190.92
-191.09
-189.81
-186.76
-181.48
-173.61
-163.04
-150.08
-135.39
-119.99
-105.09
-91.75
-80.66
-71.91
-64.99
-58.97
-52.7
-44.99
-34.89
-22.04
-6.92
9.24
24.71
38.01
48.48
56.59
63.54
70.53
78.03
85.45
91.53
95
95.23
92.47
87.62
81.79
75.94
70.67
66.36
63.11
60.93
59.6
58.8
58.13
57.13
55.42
52.75
49.02
44.26
38.72
32.85
27.24
22.47
18.88
16.51
14.96
13.67
12.08
9.88
7.07
3.92
0.75
-2.21
-4.83
-7.16
-9.25
-11.27
-13.35
-15.67
-18.25
-20.84
-22.97
-23.89
-23.02
-20.1
-15.42
-9.64
-3.58
2.03
6.72
10.19
12.32
12.98
12.22
10.25
7.54
4.7
2.19
0.28
-1.15
-2.37
-3.66
-5.14
-6.69
-8
-8.71
-8.6
-7.6
-5.98
-4.17
-2.77
-2.34
-3.28
-5.69
-9.25
-13.25
-16.68
-18.54
-18.09
-15.12
-10.05
-3.8
2.44
7.67
11.22
12.96
13.14
12.22
10.72
8.97
7.19
5.41
3.54
1.48
-0.82
-3.23
-5.51
-7.37
-8.66
-9.44
-10
-10.76
-12.11
-14.28
-17.28
-20.99
-25.09
-29.14
-32.54
-34.63
-34.8
-32.64
-28.12
-21.62
-13.93
-5.94
1.43
7.47
11.75
14.03
14.27
12.6
9.32
4.89
-0.1
-5.03
-9.43
-13
-15.7
-17.54
-18.6
-18.82
-18.13
-16.48
-14.03
-11.18
-8.53
-6.71
-6.21
-7.16
-9.23
-11.65
-13.45
-13.72
-11.91
-8
-2.48
3.86
10.19
15.78
20.11
22.87
23.95
23.41
21.57
18.9
16.05
13.58
11.87
10.96
10.57
10.26
9.62
8.51
6.98
5.33
3.88
2.79
2.08
1.48
0.67
-0.73
-2.94
-5.98
-9.58
-13.18
-16.02
-17.25
-16.25
-12.74
-7
0.26
8.04
15.31
21.27
25.36
27.4
27.51
26.07
23.59
20.66
17.75
15.08
12.57
9.84
6.43
2.02
-3.36
-9.21
-14.75
-19.09
-21.61
-22.12
-21.02
-19.1
-17.35
-16.67
-17.55
-20
-23.52
-27.26
-30.21
-31.45
-30.41
-26.95
-21.47
-14.75
-7.79
-1.51
3.38
6.58
8.14
8.41
7.93
7.18
6.56
6.23
6.17
6.18
6.04
5.62
4.9
4
3.16
2.62
2.51
2.83
3.35
3.65
3.18
1.39
-2.04
-7.05
-13.06
-19.05
-23.78
-26.09
-25.33
-21.49
-15.25
-7.64
0.22
7.47
13.63
18.52
22.17
24.53
25.55
25.13
23.36
20.58
17.31
14.17
11.55
9.6
8.14
6.83
5.36
3.61
1.66
-0.32
-2.13
-3.76
-5.26
-6.82
-8.64
-10.81
-13.4
-16.38
-19.68
-23.13
-26.42
-28.98
-30.16
-29.33
-26.09
-20.59
-13.46
-5.71
1.69
8.04
13.11
17.05
20.03
22.21
23.53
23.9
23.28
21.87
19.94
17.82
15.73
13.75
11.93
10.29
8.96
8.05
7.6
7.55
7.65
7.63
7.24
6.37
5.09
3.59
2.11
0.78
-0.46
-1.87
-3.8
-6.58
-10.26
-14.59
-18.95
-22.48
-24.38
-24.05
-21.38
-16.66
-10.56
-3.84
2.78
8.76
13.77
17.62
20.28
21.79
22.34
22.14
21.44
20.42
19.15
17.68
16.05
14.36
12.74
11.32
10.16
9.29
8.69
8.24
7.79
7.03
5.69
3.6
0.8
-2.34
-5.32
-7.63
-9.09
-9.79
-10.16
-10.68
-11.75
-13.57
-16.07
-18.99
-21.84
-24.01
-24.84
-23.77
-20.53
-15.23
-8.44
-0.97
6.24
12.44
17.13
20.18
21.73
22.05
21.55
20.52
19.21
17.77
16.3
14.91
13.69
12.75
12.05
11.51
10.96
10.27
9.37
8.38
7.47
6.77
6.36
6.14
5.93
5.46
4.59
3.23
1.48
-0.46
-2.4
-4.16
-5.71
-7.12
-8.52
-10.07
-11.89
-14.07
-16.59
-19.34
-21.96
-23.96
-24.7
-23.69
-20.77
-16.17
-10.47
-4.4
1.37
6.4
10.44
13.44
15.44
16.52
16.87
16.71
16.28
15.77
15.33
14.95
14.56
14.09
13.46
12.66
11.71
10.75
9.94
9.43
9.3
9.48
9.8
9.98
9.82
9.12
7.9
6.27
4.39
2.48
0.66
-0.97
-2.41
-3.68
-4.86
-6.05
-7.38
-9.04
-11.17
-13.85
-16.92
-20.02
-22.59
-24.01
-23.85
-21.95
-18.49
-13.85
-8.57
-3.13
2.02
6.55
10.25
12.98
14.76
15.64
15.75
15.22
14.19
12.85
11.37
9.98
8.86
8.14
7.83
7.86
8.1
8.35
8.51
8.46
8.17
7.65
6.93
6.04
4.97
3.72
2.29
0.73
-0.95
-2.68
-4.41
-6.08
-7.6
-8.92
-10.03
-11.06
-12.23
-13.78
-15.8
-18.22
-20.68
-22.61
-23.5
-22.92
-20.77
-17.22
-12.69
-7.69
-2.76
1.7
5.49
8.53
10.94
12.82
14.32
15.46
16.21
16.49
16.17
15.2
13.61
11.56
9.32
7.22
5.57
4.55
4.17
4.3
4.71
5.17
5.55
5.83
6.01
6.13
6.13
5.91
5.35
4.37
2.98
1.25
-0.7
-2.77
-4.86
-6.95
-8.98
-10.92
-12.74
-14.44
-16.06
-17.65
-19.24
-20.7
-21.78
-22.08
-21.25
-19.03
-15.46
-10.86
-5.73
-0.65
3.97
7.85
10.94
13.28
14.95
15.98
16.36
16.07
15.07
13.49
11.52
9.5
7.77
6.57
6.01
5.98
6.29
6.7
7.02
7.18
7.12
6.86
6.33
5.54
4.51
3.33
2.14
1.03
0.04
-0.89
-1.86
-2.95
-4.17
-5.49
-6.84
-8.18
-9.52
-10.92
-12.5
-14.23
-16.03
-17.64
-18.7
-18.85
-17.85
-15.68
-12.49
-8.64
-4.51
-0.47
3.22
6.37
8.79
10.44
11.22
11.15
10.33
8.94
7.18
5.28
3.48
1.98
0.94
0.49
0.65
1.37
2.44
3.65
4.76
5.63
6.2
6.45
6.4
6.01
5.25
4.06
2.47
0.57
-1.46
-3.43
-5.19
-6.71
-8.05
-9.35
-10.81
-12.53
-14.6
-16.85
-18.99
-20.53
-20.98
-19.98
-17.43
-13.57
-8.85
-3.91
0.75
4.77
8
10.42
12.05
12.92
13.03
12.42
11.19
9.52
7.66
5.86
4.39
3.35
2.76
2.45
2.28
2.11
1.92
1.8
1.81
2
2.22
2.29
1.98
1.21
0.03
-1.39
-2.81
-4.11
-5.25
-6.34
-7.45
-8.68
-10.09
-11.71
-13.61
-15.77
-18.14
-20.47
-22.37
-23.36
-23
-21.08
-17.67
-13.15
-8.04
-2.86
1.98
6.25
9.87
12.78
14.87
16.03
16.12
15.19
13.44
11.29
9.23
7.59
6.58
6.07
5.87
5.71
5.43
5.01
4.52
4.09
3.75
3.52
3.27
2.94
2.42
1.7
0.73
-0.48
-1.94
-3.61
-5.37
-7.14
-8.79
-10.28
-11.68
-13.1
-14.71
-16.57
-18.6
-20.53
-21.9
-22.22
-21.06
-18.26
-13.97
-8.7
-3.06
2.3
6.95
10.67
13.4
15.14
15.91
15.8
14.91
13.51
11.88
10.31
9.02
8.04
7.3
6.62
5.89
5.01
4.02
3
2.03
1.1
0.13
-1.04
-2.57
-4.53
-6.95
-9.8
-13.05
-16.65
-20.53
-24.58
-28.69
-32.75
-36.72
-40.55
-44.13
-47.18
-49.26
-49.83
-48.43
-44.86
-39.23
-32.06
-24.08
-16.13
-8.94
-2.95
1.73
5.33
8.28
11.01
13.7
16.34
18.69
20.57
21.88
22.73
23.28
23.62
23.73
23.46
22.74
21.59
20.25
19
18.02
17.23
16.29
14.8
12.47
9.36
5.86
2.53
-0.18
-2.13
-3.62
-5.22
-7.51
-10.79
-14.88
-19.18
-22.83
-24.94
-24.94
-22.64
-18.36
-12.67
-6.34
-0.08
5.55
10.14
13.46
15.39
15.99
15.44
14.1
12.41
10.8
9.52
8.65
8.1
7.7
7.35
7.07
7.02
7.37
8.18
9.39
10.69
11.73
12.19
11.97
11.19
10.13
9.05
8.05
7.09
5.88
4.19
1.8
-1.33
-5.07
-9.12
-12.95
-15.96
-17.54
-17.32
-15.23
-11.57
-6.87
-1.74
3.26
7.71
11.22
13.43
14.02
12.76
9.67
5.02
-0.67
-6.82
-12.92
-18.7
-24.06
-29.07
-33.78
-38.11
-41.7
-43.86
-43.62
-39.93
-31.98
-19.53
-3.16
15.87
36.02
55.95
74.97
93.04
110.39
126.96
141.74
152.79
157.7
154.6
142.98
124.1
100.77
76.69
55.74
41.37
35.86
39.57
50.55
64.69
76.97
83.22
81.68
73.66
62.55
52.05
44.28
39.04
34.45
28.57
20.77
12.12
4.74
0.46
-0.01
2.67
7.02
11.58
15.49
18.68
21.37
23.59
24.73
23.6
19.1
10.88
-0.23
-12.43
-23.7
-32.71
-39.32
-44.51
-49.55
-55.24
-61.42
-67.3
-72.17
-76.06
-80
-85.51
-93.83
-105.19
-118.65
-132.55
-145.21
-155.78
-164.46
-172.47
-181.42
-192.79
-207.59
-225.92
-246.93
-268.59
-287.73
-300.44
-303.29
-294.71
-276.11
-252.04
-228.47
-210.49
-200.03
-195.44
-192.8
-188.35
-180.57
-170.48
-160.5
-152.29
-145.66
-138.74
-129.24
-115.84
-98.56
-78.24
-55.43
-29.95
-1.34
30.21
63.16
94.7
121.65
141.65
153.95
159.69
161.22
161.35
162.26
165.15
170.11
176.61
184.08
192.37
201.81
212.73
224.93
237.45
248.6
256.5
259.41
256.1
245.83
228.48
204.8
176.51
146.13
116.21
88.49
63.35
39.94
17.13
-5.45
-26.77
-44.76
-57.18
-62.65
-61.17
-54.04
-43.27
-31.01
-19.01
-8.44
0.25
7.24
12.99
17.95
22.22
25.45
27.02
26.36
23.31
18.18
11.72
4.82
-1.67
-7.11
-11.08
-13.4
-14.2
-13.78
-12.67
-11.46
-10.69
-10.68
-11.49
-12.87
-14.27
-14.97
-14.28
-11.73
-7.24
-1.27
5.31
11.48
16.34
19.42
20.69
20.52
19.34
17.53
15.3
12.7
9.84
6.88
4.13
1.86
0.26
-0.68
-1.14
-1.38
-1.67
-2.17
-2.94
-4.03
-5.48
-7.37
-9.69
-12.29
-14.75
-16.53
-17.11
-16.16
-13.64
-9.8
-5.09
0.03
5.06
9.61
13.32
15.98
17.5
17.96
17.59
16.62
15.29
13.72
12.07
10.47
9.02
7.79
6.68
5.53
4.17
2.59
0.91
-0.61
-1.9
-3.09
-4.54
-6.73
-9.81
-13.6
-17.44
-20.53
-22.16
-21.89
-19.69
-15.81
-10.7
-4.86
1.17
6.87
11.79
15.58
18.1
19.37
19.56
18.91
17.67
16.06
14.26
12.47
10.79
9.31
8.02
6.86
5.76
4.69
3.68
2.75
1.93
1.1
0.08
-1.44
-3.69
-6.72
-10.3
-13.9
-16.89
-18.66
-18.83
-17.29
-14.21
-9.96
-4.96
0.38
5.7
10.72
15.22
19.03
22.07
24.25
25.52
25.84
25.25
23.88
22.02
20.03
18.23
16.85
15.9
15.2
14.54
13.66
12.46
10.92
9.17
7.36
5.64
4.05
2.44
0.6
-1.79
-4.95
-8.88
-13.23
-17.34
-20.4
-21.65
-20.65
-17.34
-12.13
-5.69
1.23
7.92
13.88
18.78
22.46
24.88
26.18
26.55
26.27
25.58
24.62
23.49
22.17
20.73
19.27
17.94
16.89
16.2
15.79
15.47
15.01
14.17
12.83
10.98
8.73
6.27
3.81
1.55
-0.5
-2.44
-4.56
-7.12
-10.27
-13.88
-17.48
-20.46
-22.15
-22.13
-20.27
-16.8
-12.19
-6.99
-1.7
3.33
7.85
11.72
14.8
16.98
18.19
18.43
17.82
16.56
14.97
13.39
12.15
11.51
11.58
12.29
13.39
14.51
15.27
15.46
15.08
14.27
13.22
12.04
10.72
9.18
7.42
5.55
3.72
2.02
0.37
-1.47
-3.81
-6.73
-10.08
-13.3
-15.73
-16.72
-15.91
-13.3
-9.26
-4.34
0.89
5.92
10.44
14.26
17.26
19.36
20.52
20.77
20.2
19.01
17.44
15.76
14.18
12.86
11.87
11.22
10.9
10.8
10.77
10.58
10.04
9.01
7.5
5.66
3.68
1.76
-0.03
-1.71
-3.42
-5.3
-7.46
-9.92
-12.53
-15.08
-17.26
-18.69
-19.05
-18.01
-15.43
-11.37
-6.16
-0.36
5.36
10.43
14.46
17.29
19
19.77
19.81
19.3
18.43
17.34
16.19
15.08
14.05
13.11
12.23
11.43
10.71
10.01
9.23
8.18
6.76
4.97
2.99
1.12
-0.37
-1.4
-2.07
-2.67
-3.55
-4.94
-6.94
-9.45
-12.19
-14.71
-16.49
-16.97
-15.75
-12.68
-7.92
-2.02
4.3
10.28
15.3
19.07
21.55
23.02
23.9
24.57
25.27
25.99
26.51
26.43
25.46
23.5
20.73
17.47
14.12
11.04
8.58
7
6.44
6.8
7.73
8.74
9.43
9.66
9.52
9.19
8.69
7.7
5.71
2.35
-2.36
-7.8
-13.04
-17.16
-19.62
-20.39
-19.85
-18.56
-17.03
-15.6
-14.47
-13.77
-13.67
-14.37
-16.04
-18.76
-22.24
-25.9
-28.97
-30.76
-30.93
-29.71
-27.73
-25.74
-24.35
-23.84
-24.23
-25.41
-27.27
-29.64
-32.21
-34.54
-36.24
-37.14
-37.42
-37.53
-37.91
-38.75
-40
-41.48
-43.09
-44.88
-46.94
-49.09
-50.73
-51.03
-49.18
-44.78
-38.07
-29.82
-21.13
-13.17
-7.12
-4.02
-4.58
-8.86
-15.91
-23.93
-30.66
-34.3
-34.14
-30.85
-25.92
-20.93
-16.86
-13.84
-11.49
-9.29
-6.98
-4.49
-1.86
0.97
4.12
7.65
11.51
15.51
19.51
23.28
26.53
28.82
29.56
28.36
25.21
20.81
16.37
13.35
12.87
15.39
20.52
27.15
33.92
39.57
43.41
45.36
45.84
45.43
44.53
43.23
41.38
38.91
36.01
33.22
31.26
30.69
31.67
33.8
36.27
38.05
38.31
36.67
33.29
28.86
24.39
20.94
19.3
19.89
22.53
26.57
31
34.71
36.8
36.85
35.15
32.55
30.2
29.06
29.55
31.53
34.48
37.83
41.21
44.3
46.61
47.35
45.55
40.61
32.8
23.48
14.81
9
7.63
11.03
18.36
27.83
37.22
44.28
47.16
44.71
36.9
24.9
10.85
-2.65
-13.43
-20.36
-23.62
-24.39
-24.22
-24.41
-25.67
-28.15
-31.65
-35.87
-40.42
-44.81
-48.41
-50.55
-50.81
-49.29
-46.48
-43.17
-40.01
-37.38
-35.33
-33.77
-32.64
-32.01
-31.96
-32.41
-33
-33.13
-32.23
-29.95
-26.44
-22.19
-17.84
-13.89
-10.42
-7.14
-3.48
1
6.41
12.41
18.33
23.47
27.44
30.35
32.77
35.54
39.47
45.11
52.62
61.81
72.14
82.78
92.77
101.01
106.54
108.54
106.6
100.8
91.72
80.34
67.7
54.52
41.04
27.09
12.51
-2.44
-16.74
-28.9
-37.47
-41.88
-42.81
-41.95
-41.26
-41.92
-43.89
-46.01
-46.88
-45.72
-42.8
-39.03
-35.21
-31.33
-26.42
-19.28
-9.29
2.88
15.46
26.43
34.52
39.9
43.93
48.42
54.65
62.92
72.55
82.44
91.63
99.66
106.78
113.87
122.32
133.81
150.21
173.07
203.11
239.49
279.34
317.84
349.17
368.05
371.35
359.03
333.93
300.58
263.56
226.23
190.31
156.4
124.88
96.46
72.02
52.04
35.95
22.12
8.5
-6.55
-23.49
-41.44
-58.86
-74.24
-86.91
-97.38
-107.01
-117.69
-131.48
-150.34
-175.63
-206.94
-241.2
-272.45
-293.07
-296.2
-278.44
-241.4
-191.43
-137.45
-88.13
-49.61
-24.72
-13.39
-13.76
-23.13
-38.64
-57.58
-77.65
-97.33
-115.94
-133.58
-150.57
-167.32
-184.34
-202.28
-222.04
-244.69
-271.37
-303.43
-342.56
-390.56
-448.35
-514.35
-583.38
-646.96
-695.39
-721.15
-721.7
-700.32
-664.48
-622.46
-580.43
-541.14
-504.53
-469.46
-435.33
-402.44
-371.42
-342.33
-314.2
-285.57
-255.45
-223.94
-192.04
-161.46
-133.7
-109.39
-88.23
-68.88
-49.8
-30
-9.43
11.61
32.32
51.82
69.57
85.16
99.34
113.16
127.28
141.83
157.5
174.55
192.78
211.61
229.54
246.59
263.33
280.19
297.42
316.78
339.44
365.53
394
421.96
448.94
475.99
504.65
536.48
574
617.09
661.89
701.39
725.91
730.7
715.91
685.73
631.59
551.51
450.56
340.33
245.28
167.15
100.81
39.99
-22.85
-91.19
-163.63
-236.16
-302.53
-355.28
-389.2
-399.02
-383.31
-346.01
-294.55
-235.29
-172.37
-107.19
-39.86
27.31
91.6
148.04
190.05
211.98
212.16
192.57
157.68
112.53
60.61
5.74
-48.1
-96.58
-134.89
-158.64
-165.99
-158.9
-142.73
-124.58
-109.62
-99.74
-93.77
-88.55
-80.73
-68.14
-50.26
-27.9
-2.75
23.28
48.32
70.56
88.65
102.19
112.04
119.82
126.69
132.7
136.7
137.17
133.43
126.41
118.27
111.18
105.37
98.49
87.83
72.5
54.61
37.96
25.31
16.37
8.25
-3.16
-21.28
-46.28
-75.37
-104.41
-129.72
-148.87
-160
-160.87
-150.67
-132.64
-113.4
-101.1
-101.79
-116.56
-141.6
-169.89
-193.8
-199.63
-179.55
-133.95
-71.95
-6.34
52.96
101.26
134.63
156.76
170.17
174.27
167.61
149.36
120.21
84.51
46.2
8.31
-26.79
-58.95
-90.14
-122.73
-158.55
-198.5
-243.05
-292.99
-348.59
-407.64
-465.36
-514.65
-547.33
-557.06
-541.78
-504.67
-453.07
-395.16
-336.58
-279.75
-224.48
-169.71
-115.18
-61.89
-11.29
35.58
78.99
120.53
161.79
203.69
246.37
289.62
333.58
378.6
424.32
468.64
507.33
534.78
545.98
538.47
513.33
474.53
427.28
376.18
324.41
273.9
226.19
182.95
145.76
115.47
91.58
72.43
55.98
40.78
26.51
13.74
3.41
-3.97
-8.64
-11.56
-13.99
-16.97
-21.07
-26.19
-31.75
-36.96
-41.14
-43.92
-45.37
-45.89
-46.04
-46.28
-46.86
-47.69
-48.46
-48.78
-48.36
-47
-44.67
-41.47
-37.59
-33.25
-28.73
-24.34
-20.34
-16.94
-14.23
-12.25
-10.95
-10.29
-10.18
-10.48
-11.03
-11.62
-12.07
-12.21
-12.02
-11.55
-10.95
-10.39
-10
-9.84
-9.85
-9.95
-10.01
-10.01
-9.98
-10
-10.17
-10.53
-11.11
-11.84
-12.63
-13.25
-13.47
-13.03
-11.8
-9.82
-7.32
-4.68
-2.18
0.04
2.08
4.17
6.44
8.76
10.7
11.72
11.39
9.75
7.33
5.05
3.85
4.19
5.87
7.96
9.28
8.95
6.93
4.08
1.91
1.87
4.57
9.48
14.98
19
20
17.71
13.4
9.42
8.29
11.54
19.01
28.99
38.75
45.61
47.76
44.91
38.64
32.67
32.4
43.75
70.83
113.44
165.64
216.6
254
268.63
257.89
226.12
182.02
134.16
87.32
41.61
-5.71
-57.16
-112.89
-170.42
-225.98
-276.03
-318.09
-350.97
-374.61
-390.51
-401.93
-413.11
-427.67
-446.23
-465.3
-478.19
-477.87
-460.19
-425.53
-377.89
-322.23
-262.04
-199.14
-135.28
-74.25
-22.01
15.49
35.75
42.18
43.37
49.33
66.77
95.96
131.26
164.42
189.13
203.75
211.24
216.74
224.31
235.4
248.84
262.54
274.69
283.78
287.71
282.91
265.13
231.72
184.28
129.49
77.35
37.36
14.78
8.89
14.12
23.11
30.01
32.12
29.31
22.44
11.81
-3.01
-22.16
-44.51
-67.41
-87.75
-103.18
-112.98
-117.58
-117.22
-110.8
-95.49
-68.15
-27.24
25.55
85.11
144.32
196.2
235.63
259.99
268.75
262.8
244.15
216.07
183.07
150.23
122.04
100.98
86.76
76.72
66.99
54.2
36.7
14.89
-9.1
-32.32
-51.93
-66.01
-73.75
-75.34
-71.47
-63.05
-50.98
-36.46
-21.24
-7.55
2.36
7.12
6.86
3.36
-0.62
-2.41
-0.47
5.19
13.27
21.93
29.61
35.34
38.75
39.77
38.52
35.27
30.74
26.1
22.55
20.68
19.8
18
13
3.47
-9.91
-24.43
-36.31
-42.52
-42.18
-36.97
-30.17
-24.98
-23.06
-23.94
-25.69
-26.17
-24.27
-20.38
-16.01
-12.82
-11.69
-12.3
-13.3
-13.06
-10.64
-6.26
-1.28
2.59
4.28
4.06
3.53
4.94
9.99
19.04
30.82
43.1
53.69
61.44
66.56
70.4
74.54
80.02
86.78
93.8
99.53
102.64
102.57
99.62
94.7
88.59
81.48
72.81
61.7
47.67
31.44
15.08
1.55
-6.22
-6.56
0.25
11.73
23.7
31.26
29.95
17.12
-7.22
-39.95
-75.6
-107.83
-131.29
-143.26
-144.12
-136.8
-125.36
-113.51
-103.33
-95.1
-87.81
-80.16
-71.47
-62.17
-53.66
-47.75
-45.85
-48.1
-53.3
-59.31
-63.98
-66.11
-65.92
-64.73
-64.19
-65.39
-68.28
-71.78
-74.21
-74.16
-71.01
-65.2
-57.85
-50.23
-43.2
-37.13
-32.18
-28.83
-28.25
-32.15
-42.06
-58.39
-79.78
-103.34
-125.52
-143.45
-155.86
-163.49
-168.55
-173.56
-180.09
-187.94
-195.18
-199.02
-197.1
-188.56
-174.36
-156.4
-136.45
-115.01
-91.31
-64.07
-32.81
1.13
34.78
64.44
87.39
102.85
112.17
118.09
123.57
130.78
140.45
151.94
163.47
172.76
177.49
175.82
166.87
150.99
129.93
106.48
83.99
65.47
52.93
46.91
46.54
49.85
54.35
57.7
58.17
54.99
48.33
39.2
29.02
19.29
11.23
5.46
2.04
0.5
0.08
-0.05
-0.53
-1.75
-3.76
-6.39
-9.35
-12.35
-15.13
-17.51
-19.31
-20.4
-20.67
-20.22
-19.37
-18.64
-18.6
-19.56
-21.34
-23.26
-24.4
-24.01
-21.83
-18.25
-13.99
-9.75
-5.88
-2.42
0.75
3.61
5.87
7.13
7.12
5.92
4.05
2.28
1.33
1.59
3.03
5.19
7.39
8.92
9.31
8.52
6.91
5.08
3.61
2.81
2.59
2.53
2.14
1.01
-0.99
-3.72
-6.83
-9.87
-12.36
-13.9
-14.21
-13.22
-11.05
-7.98
-4.36
-0.53
3.26
6.75
9.72
11.95
13.27
13.65
13.19
12.17
10.9
9.69
8.77
8.26
8.24
8.62
9.26
9.93
10.42
10.56
10.33
9.83
9.24
8.76
8.45
8.2
7.72
6.55
4.32
0.89
-3.47
-8.05
-11.91
-14.2
-14.47
-12.83
-9.87
-6.36
-2.96
0.02
2.6
5.01
7.41
9.83
12.06
13.82
14.82
14.91
14.15
12.72
10.94
9.14
7.58
6.41
5.69
5.38
5.42
5.73
6.18
6.63
6.97
7.12
7.12
7.06
7.14
7.47
8.04
8.7
9.13
8.99
8.18
6.91
5.75
5.4
6.41
8.86
12.46
16.79
21.64
27.25
34.01
41.97
50.58
58.48
63.95
65.55
62.51
54.98
43.84
30.5
16.59
3.86
-6.05
-11.91
-13.31
-11.03
-6.85
-2.96
-1.09
-1.67
-3.67
-5.03
-3.53
2.22
12.26
25.46
40.07
54.42
67.37
78.44
87.46
94.33
98.85
100.73
99.83
96.06
89.32
79.33
65.69
48.23
27.56
5.53
-15.13
-31.68
-42.77
-49.18
-53.51
-58.75
-66.3
-74.86
-80.72
-79.76
-69.64
-51.25
-28.32
-5.59
13.27
26.96
36.18
42.29
45.96
46.61
43.16
35.12
23.39
10.09
-2.37
-12.42
-19.76
-25.09
-29.32
-32.86
-35.49
-36.85
-37.16
-37.65
-40.32
-47.13
-58.91
-74.86
-92.51
-108.48
-119.54
-123.59
-120.2
-110.63
-97.21
-82.6
-69.21
-58.78
-52.3
-50.06
-51.77
-56.56
-63.18
-70.15
-75.92
-79.23
-79.26
-75.79
-69.41
-61.39
-53.3
-46.35
-40.76
-35.71
-30.1
-23.62
-17.71
-15.7
-21.69
-38.81
-67.52
-105.14
-146.66
-186.72
-220.87
-246.19
-261.03
-264.49
-256.26
-236.77
-207.45
-170.68
-129.91
-88.11
-46.73
-5.39
37.25
81.99
127.89
172.2
211.48
242.13
262.45
273.36
277.95
279.88
281.56
283.22
282.93
278.05
265.12
242.28
210.24
172.23
132.85
96.45
66.07
42.93
33.8
43.28
71.76
114.13
162.01
207.74
246.41
275.94
294.73
304.84
307.51
303.72
294.52
280.91
263.34
241.01
214.99
185.65
153.95
120.41
85.96
51.98
19.97
-9
-34.75
-57.81
-79.31
-99.7
-119.42
-138.14
-155.06
-169.35
-180.72
-189.76
-197.61
-205.6
-214.14
-222.97
-231.19
-237.62
-241.67
-243.74
-245.34
-248.77
-257
-273.06
-299.7
-338.07
-386.35
-438.95
-487.28
-522.06
-536.62
-529.46
-504.62
-469.77
-432.95
-399.61
-371.66
-348.28
-327.83
-309.42
-293.18
-279.49
-267.96
-257.12
-244.97
-230.04
-212.14
-192.37
-172.74
-155.12
-140.51
-128.75
-118.79
-109.35
-99.57
-89.45
-79.79
-71.53
-65.31
-61.07
-57.82
-53.88
-47.27
-36.41
-20.56
-0.08
23.94
49.91
76.24
101.67
125.51
147.55
167.74
185.89
201.34
213.67
222.37
227.23
228.58
227.47
225.62
224.9
226.69
231.35
239.57
251.3
265.69
281.56
297.99
314.78
332.63
352.95
377.41
410.12
453
503.71
554.9
596.33
619.12
619.44
599.92
568.16
537.67
518.69
514.53
521.3
531.65
539.51
542.15
539.37
531.45
523.86
520.62
523.45
531.47
542.41
554.28
565.9
576.38
548.88
461.57
313.71
129.12
-57.5
-219.28
-344.76
-434.75
-495.45
-534.19
-551.73
-548.79
-528.17
-495.8
-459.2
-424.58
-395.69
-373.64
-358.14
-343.86
-326.26
-303.39
-276.88
-250.73
-229
-214.77
-209.43
-212.85
-220.99
-229.51
-235.33
-237.79
-238.21
-236.3
-234.23
-233.48
-234.7
-236.83
-239.01
-240.82
-241.81
-240.41
-233.28
-216.81
-188.68
-150.23
-106.5
-64.84
-31.91
-11.11
-1.65
0.22
-1.52
-4.13
-6.86
-10.09
-13.88
-17.26
-18.56
-16.47
-10.91
-3.21
4.7
11.41
16.4
20.14
23.66
27.93
33.32
39.37
44.97
48.95
50.64
50.08
47.99
45.34
42.99
41.4
40.53
40.01
39.46
38.71
37.99
37.6
37.72
38.32
39.1
39.78
40.16
40.32
40.5
41.25
42.8
44.94
47.26
49.15
50.29
50.63
50.49
50.45
51.73
55.53
62.63
72.95
84.96
95.92
102.53
102.3
91.89
71.55
43.91
12.7
-18.61
-47.61
-72.92
-93.89
-110.24
-122.07
-129.58
-133.47
-134.58
-133.54
-130.56
-125.78
-119.65
-112.97
-106.36
-99.49
-91.31
-80.6
-66.85
-50.68
-33.49
-16.52
-0.02
16.87
35.45
56.21
78.24
99.68
118.87
135.23
149.5
162.92
176.1
188.39
197.98
202.97
202.53
197.46
189.8
181.65
174.18
167.23
159.78
150.97
140.52
128.36
113.69
94.26
66.97
29.48
-17.78
-70.61
-121.92
-164.31
-192.84
-206.71
-208.84
-203.8
-195.48
-186.05
-176.44
-167.64
-161.16
-158.15
-157.68
-155.84
-146.96
-126.58
-94.53
-56.09
-19.88
5.87
17.24
15.87
7.37
-1.93
-7.74
-8.8
-5.97
-0.72
5.84
12.92
19.53
24.36
26.26
24.68
20.04
13.49
6.44
0.11
-4.68
-7.6
-8.72
-8.34
-6.69
-3.65
1.42
9.35
20.43
33.78
47.34
58.38
64.66
65.25
60.8
53.02
43.83
34.81
26.83
20.15
14.68
10.15
6.22
2.54
-1.13
-4.81
-8.01
-9.84
-9.38
-6.51
-2.69
-0.86
-4.7
-17.29
-39.81
-70.74
-105.91
-139.72
-166.8
-184.09
-191.79
-193.19
-192.95
-194.91
-200.28
-207.18
-211.98
-211.45
-204.58
-192.74
-178.45
-163.72
-149.13
-134.11
-117.94
-100.3
-80.77
-57.92
-29.24
7.84
53.93
106.45
159.92
207.95
245.56
270.72
284.14
288.38
286.7
282.55
279.4
279.94
285.17
293.49
300.93
302.49
294.26
275.17
247.67
216.82
188.39
166.91
154.26
149.13
147.41
143.42
131.67
108.88
75.24
34.56
-7.04
-43.21
-69.47
-84.78
-92.14
-97.77
-109.39
-133.15
-170.53
-216.62
-260.87
-290.06
-293.06
-264.92
-208.83
-135.49
-60.21
1.5
38.01
44.52
23.89
-15.36
-63.24
-112.76
-162.56
-215.6
-274.84
-338.55
-398.38
-441.93
-458.72
-445.29
-406.72
-353.46
-295.91
-240.33
-188.4
-139.58
-94.35
-55.48
-26.48
-9.05
-1.46
1.25
4.89
13.55
28.31
47.56
68.3
87.77
104.23
117.05
126.39
132.93
137.61
141.45
145.32
149.51
153.64
156.69
157.53
155.56
151.06
145.13
139.13
134.1
130.29
127.26
124.18
120.34
115.47
109.78
103.83
98.18
93.32
89.44
86.48
84.11
81.77
78.9
75.08
70.28
64.83
59.3
54.29
50.15
46.91
44.37
42.19
40.05
37.78
35.28
32.55
29.6
26.54
23.48
20.52
17.7
14.89
11.88
8.43
4.47
0.18
-4.01
-7.54
-9.91
-10.84
-10.39
-8.81
-6.49
-3.75
-0.9
1.85
4.23
5.99
6.9
6.84
5.91
4.36
2.55
0.79
-0.75
-2
-2.99
-3.71
-4.1
-4.07
-3.59
-2.75
-1.81
-1
-0.47
-0.2
-0.02
0.2
0.53
0.86
0.95
0.52
-0.68
-2.77
-5.71
-9.18
-12.64
-15.44
-16.95
-16.78
-14.94
-11.84
-8.12
-4.44
-1.35
0.89
2.18
2.65
2.53
2.17
1.95
2.19
3.01
4.3
5.74
6.93
7.56
7.49
6.84
5.88
4.93
4.28
4.04
4.16
4.37
4.29
3.5
1.73
-1.09
-4.74
-8.85
-13.02
-16.88
-20.18
-22.71
-24.25
-24.54
-23.37
-20.69
-16.69
-11.8
-6.59
-1.67
2.54
5.83
8.18
9.72
10.59
10.93
10.8
10.29
9.46
8.42
7.29
6.19
5.12
4.04
2.85
1.45
-0.17
-1.89
-3.4
-4.34
-4.36
-3.31
-1.29
1.28
3.82
5.73
6.59
6.21
4.65
2.1
-1.15
-4.74
-8.26
-11.2
-13.13
-13.78
-13.16
-11.53
-9.32
-6.95
-4.7
-2.69
-0.9
0.75
2.35
3.94
5.56
7.16
8.64
9.88
10.7
11
10.75
10.1
9.26
8.51
8.09
8.16
8.76
9.75
10.93
11.98
12.65
12.73
12.15
10.93
9.15
6.91
4.28
1.33
-1.85
-5.03
-7.9
-10.07
-11.18
-11.08
-9.86
-7.78
-5.17
-2.37
0.38
2.83
4.7
5.7
5.56
4.26
2.05
-0.54
-2.87
-4.43
-5.03
-4.84
-4.21
-3.56
-3.15
-3.03
-3.13
-3.31
-3.56
-3.95
-4.63
-5.83
-7.74
-10.42
-13.75
-17.4
-20.86
-23.55
-25.04
-25.21
-24.31
-22.92
-21.66
-20.99
-20.99
-21.46
-22.04
-22.42
-22.56
-22.67
-23.2
-24.65
-27.36
-31.39
-36.21
-40.59
-42.59
-39.97
-30.85
-14.58
7.79
33.56
59.03
80.54
95.35
102.13
101
93.18
80.56
65.43
50.05
36.4
25.75
18.46
14.02
11.45
9.86
8.83
8.41
8.77
9.87
11.28
12.34
12.58
11.93
10.69
9.35
8.19
7.25
6.36
5.43
4.57
4.01
3.96
4.33
4.83
5.08
4.9
4.34
3.67
3.16
2.9
2.82
2.69
2.34
1.67
0.68
-0.53
-1.84
-3
-3.7
-3.56
-2.37
-0.14
2.77
5.75
8.16
9.51
9.71
8.96
7.7
6.28
4.79
3.06
0.77
-2.19
-5.56
-8.67
-10.73
-11.25
-10.33
-8.71
-7.32
-6.82
-7.27
-8.19
-8.92
-9.12
-8.92
-8.81
-9.3
-10.55
-12.45
-14.61
-16.75
-18.62
-20.07
-20.93
-21.04
-20.4
-19.22
-17.96
-17.03
-16.55
-16.29
-15.75
-14.49
-12.38
-9.75
-7.16
-5.17
-4.04
-3.61
-3.41
-2.85
-1.57
0.44
2.82
5.01
6.54
7.22
7.27
7.17
7.41
8.24
9.54
10.91
11.83
11.92
11.02
9.3
7.16
5.1
3.61
3.04
3.59
5.1
6.99
8.24
7.78
4.99
0.2
-5.21
-9.31
-10.56
-8.71
-5.02
-1.88
-1.65
-5.67
-13.68
-24.14
-35.04
-44.78
-52.67
-58.81
-63.7
-67.68
-70.73
-72.57
-72.89
-71.7
-69.4
-66.75
-64.55
-63.27
-62.74
-62.15
-60.29
-55.99
-48.72
-38.61
-26.48
-13.38
-0.27
12.2
23.53
33.28
41.05
46.68
50.52
53.56
57.08
62.03
68.27
74.47
78.47
78.34
73.34
64.41
53.73
43.78
36.22
31.29
27.91
24.38
19.39
12.63
4.86
-2.63
-8.84
-13.55
-17.31
-20.81
-24.32
-27.33
-28.95
-28.55
-26.34
-23.43
-21.2
-20.56
-21.26
-22.01
-21.12
-17.34
-10.36
-0.84
10.01
20.96
30.95
39.15
44.99
48.08
48.32
45.97
41.57
35.81
29.47
23.27
17.9
13.95
11.66
10.86
10.9
11.01
10.58
9.55
8.41
7.98
9.02
11.88
16.36
21.84
27.47
32.39
35.82
37.26
36.51
33.78
29.61
24.78
20.02
15.84
12.44
9.73
7.43
5.16
2.54
-0.74
-4.83
-9.53
-14.3
-18.31
-20.72
-20.93
-18.96
-15.35
-11.04
-7
-3.95
-2.18
-1.65
-2.17
-3.46
-5.34
-7.55
-9.71
-11.35
-12.01
-11.44
-9.78
-7.4
-4.64
-1.61
2.01
6.8
13.36
21.96
32.4
43.9
55.46
66.17
75.4
82.94
89.1
94.63
100.65
108.21
117.7
128.5
139.09
147.41
151.67
150.92
145.12
134.78
120.44
102.27
80.43
55.8
30.05
5.73
-14.47
-28.61
-35.78
-35.07
-26.36
-10.68
10
33.08
56.4
78.38
97.88
114.14
126.82
135.57
140.54
142.37
141.49
138.57
134.21
128.73
122.16
114.2
104.14
90.77
77.12
64.93
55.66
50.37
49.61
53.48
61.74
73.82
88.99
106.54
125.06
143.18
159.47
172.5
181.02
184.1
181.33
172.9
159.67
142.43
122.19
99.97
76.56
52.64
28.81
5.81
-15.38
-33.66
-48.29
-58.89
-65.68
-69.54
-71.73
-73.43
-75.4
-77.77
-80.16
-82.35
-84.65
-88.25
-95.18
-107.85
-128.3
-157.44
-194.8
-238.82
-287.48
-339.07
-392.63
-448
-505.57
-566.07
-630.47
-699.49
-772.67
-847.07
-916.54
-972.32
-1005.37
-1009.43
-983.6
-932.67
-865.25
-790.43
-714.9
-641.73
-571.24
-502.84
-436.52
-373.22
-314.04
-259.33
-208.32
-159.63
-112.31
-66.49
-23.42
14.94
46.97
72.04
90.81
104.83
115.87
125.26
133.38
139.77
143.48
143.71
140.24
133.59
124.83
115.19
105.63
96.61
88.12
79.9
71.76
63.75
56.27
49.86
45.05
42.1
40.91
41.09
42.04
43.19
44.09
44.47
44.22
43.37
41.95
40.04
37.71
35.02
32.07
28.97
25.85
22.85
20.05
17.53
15.37
13.57
12.15
11.09
10.39
10.04
10.03
10.38
11.04
11.99
13.14
14.41
15.69
16.92
18.09
19.21
20.37
21.63
23.04
24.57
26.15
27.67
29.04
30.24
31.36
32.54
33.92
35.61
37.55
39.57
41.47
43.06
44.38
45.64
47.2
49.42
52.5
56.34
60.64
64.94
68.95
72.66
76.45
80.95
86.77
94.28
103.35
113.54
124.28
135.18
146.26
157.98
171
186.1
203.96
225.12
249.72
277.14
305.6
332.21
353.55
366.77
370.63
365.86
354.71
339.88
323.39
306.14
288.15
269.37
250.32
232.21
216.49
204.09
194.92
187.8
180.98
172.89
162.7
150.61
137.78
125.88
116.63
111.48
111.46
117.18
128.94
146.66
169.75
196.99
226.44
255.62
281.89
303.1
318.05
326.86
330.78
331.82
332.09
333.3
336.43
341.71
348.39
354.8
358.57
357.01
348.08
331.08
307.12
278.87
249.66
222.37
198.78
179.39
163.94
152.02
143.5
138.53
137.31
139.77
145.43
153.5
163.04
173.19
183.25
192.65
200.81
207.07
210.58
210.51
206.16
197.26
183.98
166.98
147.23
125.79
103.63
81.5
59.92
39.17
19.45
0.93
-16.14
-31.4
-44.38
-54.64
-61.87
-66.03
-67.5
-67
-65.45
-63.63
-61.91
-60.11
-57.59
-53.66
-48.06
-41.37
-35.04
-31.04
-31.21
-36.49
-46.51
-59.72
-74.06
-87.97
-101.22
-115.07
-131.74
-153.27
-180.25
-211.25
-243.05
-271.8
-294.49
-310.31
-321.04
-330.49
-343.51
-364.47
-395.59
-435.61
-478.94
-516.09
-535.67
-527.86
-488.3
-420.79
-337.18
-254.1
-187.51
-147.9
-137.57
-151.83
-182.56
-222.21
-266.44
-314.51
-367.83
-427.8
-493.84
-562.51
-627.72
-682.16
-719.35
-735.62
-731.05
-709.33
-676.08
-636.67
-594.8
-552.09
-509.31
-467.61
-429.01
-395.62
-368.34
-345.94
-325.48
-303.72
-278.55
-250.14
-220.57
-192.97
-169.84
-152.03
-138.55
-127.13
-115.47
-101.62
-85.02
-66.58
-48.12
-31.52
-17.88
-7.23
1.29
8.81
17.76
29.9
45.77
64.46
84
102.32
118.02
130.58
140.1
150.26
164.72
185.75
213.15
244.4
276.09
305.35
330.51
350.93
372
399.45
437.2
485.47
540.78
598.06
652.97
702.93
747.02
792.62
847.81
918.65
1006.41
1107.43
1215.57
1325.11
1432.06
1490.06
1462.93
1332.6
1111.21
836.59
553.17
294.38
77.01
-95.63
-228.42
-323.42
-384.75
-419.26
-437.11
-449.76
-465.93
-488.77
-516.23
-543.96
-562.91
-566.49
-552.4
-523.28
-485.25
-445.09
-407.97
-376.9
-353.28
-334.08
-315.54
-294.43
-269.45
-241.4
-212.46
-185.01
-160.98
-141.77
-126.5
-113.56
-101.3
-88.78
-76.14
-64.41
-54.6
-47.61
-44.01
-43.31
-44.5
-46.27
-47.67
-48.15
-47.61
-46.19
-44.17
-41.73
-38.78
-34.99
-29.83
-23.25
-15.43
-6.95
1.44
9.04
15.66
21.73
28.2
36.17
45.74
56.4
66.88
75.68
81.74
85.05
86.87
88.96
93.22
99.97
108.31
116.01
120.34
118.92
110.96
97.39
79.48
62.56
48.79
38.12
28.82
18.38
4.2
-15.45
-40.98
-71.43
-102.58
-127.03
-134.56
-115.92
-67.25
5.96
90.02
167.52
222
245.45
240.09
215.94
184.71
155.11
129.2
105.66
83.23
58.72
31.41
2.77
-24.76
-50.09
-72.77
-95.96
-121.64
-149.36
-183.1
-225.56
-276.54
-333.08
-392
-449.06
-505.6
-562.39
-618.06
-677.8
-745.24
-819.17
-893.67
-961.7
-1014.93
-1053.5
-1078.95
-1042.45
-919.04
-719.29
-485.92
-267.04
-115.26
-21.89
26.46
40.96
31.07
3.53
-35.73
-76.33
-105.52
-114.32
-98.19
-65.3
-25.92
12.79
42.06
57.5
60.79
57.71
54.53
57.97
68.19
84.52
107.01
131.98
155.57
176.18
194.42
211.97
231.68
252.71
273.7
293.56
309.29
317.78
317.28
307.77
290.44
267.92
241.82
214.16
187.25
162.6
141.08
123.3
109.72
100.44
95.47
94.01
95.22
98.47
103.31
109.32
116.03
122.85
129
133.61
135.98
135.77
133.25
129.26
125.04
121.84
120.44
120.92
122.71
124.96
127.13
129.51
133.26
140.1
151.54
168.18
189.33
213.31
238.07
262.15
285.25
308.28
332.94
361.19
394.81
435.1
482.18
534.14
586.33
631.54
661.58
669.81
653.69
615.69
562.16
500.95
438.01
376.04
315.13
255.17
198.02
148.2
111.4
91.8
90.44
104.18
127.12
152.56
174.92
190.76
198.71
198.82
191.59
178.64
161.68
142.73
124.05
107.75
95.44
87.99
85.34
85.5
87.79
90.33
91.58
90.83
88.4
85.33
82.79
81.58
79.65
78.47
77.16
75.04
71.93
68.23
64.82
62.69
62.59
61.5
62.54
65.18
68.65
72.17
74.96
76.37
75.8
72.67
61.98
47.25
27.76
2.87
-27.67
-63.59
-103.99
-147.33
-164.26
-184.7
-202.85
-218.35
-231.59
-243.55
-255.21
-267.16
-279.3
-290.98
-305.68
-318.63
-330.08
-341.08
-353.08
-367.39
-384.58
-404.2
-425.27
-450.07
-474.91
-500.42
-528.07
-559.8
-597.68
-643.6
-698.75
-762.7
-834.22
-904.36
-963.43
-1001.34
-1010.91
-990.42
-944.14
-880.44
-808.44
-736.09
-665.67
-597.75
-532.16
-469.46
-411.17
-358.73
-312.6
-271.59
-234.09
-197.8
-161.89
-126.85
-94.27
-65.78
-42.13
-22.99
-6.9
7.94
23.47
40.76
59.6
78.63
96.03
110.43
121.23
129.21
135.65
143.42
154.87
170.75
189.56
208.36
224.22
234.75
239.98
241
242.6
249.48
263.87
283.96
304.97
321.7
329.43
327.99
319.33
311.83
314.21
331.72
363.18
402.22
441.47
473.73
498.52
518.23
543.57
585.79
651.98
741.55
847.47
960.25
1067.95
1163.28
1197.84
1134.35
965.47
725.1
468.54
240.96
77.07
-40.57
-132.76
-215.23
-290.36
-354.98
-405.37
-440.76
-463.17
-473.87
-475
-465.5
-448.88
-428.52
-408.42
-390.56
-373.93
-354.95
-329.73
-300.14
-270.91
-251.41
-247.11
-257.08
-273.59
-286.36
-287.04
-271.53
-241.65
-201.17
-156.3
-112.71
-75.4
-47.65
-30.49
-21.61
-15.26
-4.44
17.71
54.39
104.66
163.45
222.93
273.85
307.03
314.95
293.46
244.49
176.89
105.27
46.08
11.55
4.66
17.66
35
39.56
19.53
-27.57
-94.77
-169.01
-235.93
-284.01
-306.39
-301.22
-270.74
-220.04
-156.14
-86.7
-18.68
42.86
95.13
137.6
171.11
197.11
217.15
232.88
246.42
260.37
277.48
299.55
326.21
354.37
378.89
394.42
397.42
387.5
367.29
340.93
312.47
284.62
258.55
234.64
213.35
195.55
182.31
174.22
170.77
170.3
170.57
169.5
166.14
160.78
154.61
149.14
145.35
143.37
142.47
141.57
139.71
136.58
132.64
128.82
126.23
125.57
126.94
129.73
132.95
135.44
136.35
135.16
131.83
126.6
119.85
111.85
102.59
91.71
78.63
62.7
43.5
21.11
-3.8
-30.1
-56.5
-82.07
-106.51
-130.23
-154.1
-178.79
-204.32
-229.68
-253.03
-272.32
-286.13
-294.29
-298.04
-299.45
-300.5
-302.19
-304
-304.48
-301.94
-295.64
-286.53
-277.1
-270.76
-271.24
-281.91
-305.2
-341.63
-388.52
-439
-482.37
-506.63
-503.09
-470.51
-417.19
-358.85
-313.16
-293.52
-305.26
-345.59
-406.8
-480.09
-557.67
-632.64
-697.5
-743.87
-764
-753.73
-714.65
-654.09
-582.67
-510.35
-443.41
-383.62
-329.53
-278.68
-229.62
-182.72
-139.69
-102.59
-72.8
-50.54
-34.98
-24.56
-17.77
-13.39
-10.76
-9.69
-10.14
-11.92
-14.63
-17.7
-20.53
-22.58
-23.61
-23.62
-22.74
-21.12
-18.67
-15.18
-10.38
-3.84
4.97
16.44
30.86
48.31
68.71
91.83
117.35
144.63
173.06
202.14
231.27
259.73
286.64
311.07
332.21
349.5
362.51
371.4
377.15
380.56
382.1
381.29
376.87
367.36
353.07
333.18
307.39
277.7
247.18
219.15
195.31
175.41
158.03
141.66
125.21
108.84
95.59
88.59
90.03
99.44
114
130.21
145.34
158.31
170.4
186.97
210.92
245.39
291.67
349.1
415.32
486.2
554.71
599.56
602.42
554.77
464.61
352.87
243.25
152.5
86.53
40.93
7.02
-20.24
-43.24
-60.72
-71.19
-75.32
-75.68
-75.45
-79.11
-89.97
-108.12
-128.6
-146.58
-158.93
-165.59
-168.71
-171.5
-179.63
-197.92
-228.11
-269.18
-319.09
-376.24
-440.27
-510.38
-567.64
-592.81
-572.97
-509.2
-415.7
-312.34
-215.96
-137.12
-78.89
-38.44
-12.65
1.56
6.29
3.68
-4.4
-12.94
-17.41
-15.1
-5.93
5.91
15.47
18.84
15.34
6.32
-2.29
-4.85
2.29
20.16
43.73
68.39
91.05
111.79
131.37
155.41
188.57
232.71
286.39
345.43
405.97
465.63
524.97
567.01
580.28
559.2
507.46
435.39
354.17
272.32
194.78
135.52
93
68.56
63.31
75.55
99.22
125.11
144.14
142.92
116.28
64.87
-1.12
-69.59
-131.59
-184.25
-230.48
-276.27
-327.48
-385.88
-449.08
-507.59
-550.26
-568.63
-559.78
-526.43
-475.45
-415.24
-351.95
-288.11
-221.26
-148.1
-67.68
17.46
103.45
187.21
267.91
336.17
381.44
397.69
387.19
358.56
320.23
277.98
234.94
193.26
155.17
124.06
102.96
92.65
90.72
92.12
92.37
88.8
81.15
70.88
61.48
56.31
56.94
64.46
74.31
82.62
87.24
88.13
86.43
84.92
86.74
94.36
108.66
128.18
150.07
169.83
182.24
182.36
168.43
142.72
110.97
80.13
55.37
38.97
29.4
25.46
24.55
24.47
24.04
22.98
21.12
17.8
12.53
5.19
-3.47
-12.46
-20.5
-26.65
-30.79
-33.63
-36.4
-39.97
-44.4
-48.75
-51.69
-51.82
-48.33
-41.56
-32.93
-24.41
-17.71
-13.62
-11.83
-11.38
-10.99
-9.55
-6.38
-1.23
5.84
14.57
24.47
34.79
44.56
52.92
59.54
64.66
69.11
73.82
79.55
86.52
94.4
102.4
109.54
115.02
118.35
119.33
118.03
114.73
110.03
104.92
100.63
98.38
98.83
101.6
105.2
107.32
105.66
98.64
86.01
68.77
48.66
27.54
6.9
-12.28
-29.44
-44.45
-57.52
-69.34
-80.87
-93.09
-106.58
-121.18
-136.09
-150.16
-162.54
-173.05
-182.39
-191.81
-202.67
-215.89
-231.58
-248.84
-265.8
-279.93
-288.97
-291.81
-289.51
-285.19
-282.99
-286.06
-294.84
-306.23
-314.24
-312.01
-294.38
-260.07
-212.43
-158.68
-107.75
-67.79
-43.98
-37.45
-45.41
-62.22
-81.03
-95.46
-100.72
-94.3
-76.13
-48.36
-14.81
19.85
51.22
76.03
92.73
101.46
103.5
100.96
96.1
91.02
87.11
84.74
83.05
80.31
74.54
64.59
50.87
35.55
21.96
13.53
12.65
19.99
34.55
54.33
77.12
101.31
126.01
150.84
175.37
198.88
220.31
238.57
252.64
261.58
264.37
259.79
246.84
225.33
196.43
162.85
128.22
96.1
69
47.9
32.49
21.07
12.38
6.11
2.71
2.29
4.02
6.14
6.59
3.65
-4.28
-17.34
-34.03
-51.93
-68.95
-84.3
-98.64
-113.62
-131
-153.6
-182.21
-214.69
-247.01
-275.51
-298.66
-317.36
-334.28
-353.1
-382.92
-430.03
-494.2
-568.17
-641.01
-701.38
-739.5
-749.36
-730.13
-697.23
-665.52
-640.91
-619.18
-592.44
-554.44
-501.58
-432.78
-349.5
-273.11
-221.36
-199.1
-199.14
-212.53
-234.36
-262.25
-294.2
-328.21
-385.48
-480.54
-609.78
-753.72
-892.52
-1015.98
-1122.99
-1217.59
-1165.5
-906.87
-490.43
-39.32
346.42
632.31
827.93
957.08
1041.74
1097.77
1113.22
1080.67
1009.74
924.51
847.62
790.29
753.93
734.49
726.7
708.82
666.79
602.65
531.53
468.65
421.45
390.65
373.12
365.19
353.07
327.96
291.11
251.8
219.38
196.27
183.85
180.38
183.34
185.19
180.79
170
156.5
144.18
134.81
128.56
124.37
121.33
117.01
110.08
101.18
91.95
84.16
78.63
75.6
74.52
74.87
76.37
78.98
82.85
87.57
92.74
97.82
102.32
105.53
106.86
105.85
101.87
97.71
94.14
91.23
88.41
84.77
79.28
71.15
60.17
46.55
30.83
13.15
-6.29
-27.26
-49.39
-72.3
-95.68
-119.55
-144.18
-169.58
-195.22
-218.93
-237.27
-246.78
-245.45
-233.69
-214.12
-190.32
-165.23
-140.7
-117.36
-95.69
-76.86
-62.65
-54.48
-52.22
-53.81
-55.95
-55.82
-52.19
-45.87
-38.87
-32.99
-28.57
-24.19
-17.45
-6.12
10.68
32.34
57.19
83.28
109.12
133.67
156.06
175.17
189.5
197.45
197.69
189.54
173.06
149.03
118.89
84.51
47.91
10.9
-25.27
-59.92
-92.89
-124.42
-155.1
-185.65
-216.55
-247.4
-276.4
-300.39
-315.84
-320.38
-314.23
-300.63
-284.8
-271.98
-265.43
-265.5
-270.04
-275.85
-280.27
-282
-281.1
-278.11
-273.24
-265.68
-253.79
-235.57
-209.59
-175.86
-136.18
-93.72
-52.25
-14.96
16.47
42.18
63.96
84.54
107.01
133.77
165.26
198.82
228.08
243.56
234.86
194.17
119.87
18.5
-96.01
-206.13
-295.86
-355.32
-382.72
-383.14
-365.23
-337.54
-306.26
-274.83
-245.05
-218.3
-196.03
-179.31
-167.94
-159.94
-152.15
-141.58
-126.66
-107.84
-87.07
-66.75
-48.42
-32.05
-16.24
0.97
21.03
44.1
68.87
93.08
114.4
131.27
143.39
151.55
157.16
161.49
165.22
168.17
169.63
168.7
164.77
157.8
148.26
136.9
124.48
111.51
98.22
84.61
70.64
56.38
42.06
28.08
14.91
3.01
-7.29
-15.73
-22.21
-26.68
-29.16
-29.69
-28.39
-25.42
-21.02
-15.48
-9.15
-2.41
4.4
10.91
16.84
21.97
26.14
29.34
31.65
33.24
34.34
35.18
35.95
36.74
37.56
38.31
38.87
39.1
38.87
38.08
36.62
34.41
31.37
27.5
22.91
17.88
12.9
8.62
5.76
5
6.82
11.36
18.44
27.59
38.21
49.69
61.5
73.19
84.24
94.01
101.71
106.53
107.95
106.03
101.62
96.25
91.84
90.08
91.97
97.55
106
116.1
126.88
138.05
150.16
164.22
181.15
201.16
223.51
246.94
270.08
292.23
313.72
335.79
360.4
389.9
426.93
473.85
531.66
598.62
669.33
735.3
787.07
817.49
824.25
810.56
783.4
750.3
716.47
684.07
652.37
619.35
583.45
544.2
502.06
457.53
410.56
360.98
309.29
256.4
203.33
151.11
100.32
51.3
4.15
-41.22
-84.64
-124.56
-159.87
-190.46
-217.37
-242.19
-266.14
-289.67
-313.07
-335.89
-354.29
-366.04
-371.82
-375.29
-381.53
-395.07
-418.61
-453.14
-494.92
-528.95
-539.91
-517.36
-459.59
-373.03
-268.59
-158.2
-53.45
40.64
135.22
240.32
358.68
483.41
602.72
707.4
794.01
861.66
916.29
979.07
1063.86
1171.48
1289.25
1399.04
1487.07
1547.44
1577.61
1484.14
1220.09
797.36
288.16
-217.04
-654.33
-998.48
-1230.78
-1384.45
-1485.33
-1534.42
-1531.29
-1482.19
-1402.42
-1314.36
-1233.71
-1168.16
-1122.36
-1091.79
-1059.18
-1012.24
-948.07
-873.77
-800.99
-738.57
-690.41
-658.69
-638.86
-618.48
-588.58
-546.54
-496.46
-445.78
-400.42
-363.3
-336.15
-316.13
-296.17
-270.9
-238.26
-199.91
-159.63
-120.7
-85.03
-53.65
-24.96
4.59
37.89
76.2
118.75
163.41
207.98
250.85
291.13
329.43
366.92
405.06
445.55
490.26
540.77
597.27
657.23
714.7
761.05
787.37
787.53
760.58
711.12
647.53
578.8
511.73
449.43
391.89
337.47
284.51
232.29
180.78
130.12
80.17
30.63
-18.47
-66.23
-110.93
-150.58
-184.02
-211.52
-234.52
-254.52
-271.72
-284.17
-288.28
-280.48
-259.44
-227.48
-190.5
-156.05
-130.7
-117.39
-114.56
-117.28
-119.63
-117.44
-109.77
-98.64
-86.94
-76.32
-65.97
-53.18
-35.48
-12.63
12.67
35.93
53.05
62.36
65.03
64
62.03
60.3
58.29
54.71
48.64
40.25
30.49
20.49
10.88
1.54
-8.46
-20.65
-37.37
-61.73
-96.87
-144.66
-204.16
-270.71
-336.46
-392.39
-431.01
-448.72
-446.51
-428.86
-401.54
-369.32
-334.72
-298.24
-259.54
-218.61
-176.26
-133.81
-92.3
-52.09
-13
24.86
60.56
92.24
117.72
135.55
145.75
150.04
151.16
151.96
154.38
158.69
163.38
165.7
162.53
151.45
131.54
103.79
71.01
37.26
6.93
-16.16
-29.59
-32.64
-26.33
-12.95
4.54
23.08
40.03
53.4
62.06
65.67
64.76
60.43
54.06
46.79
39.43
32.53
26.55
21.91
18.78
16.73
14.67
11.24
5.57
-1.96
-9.56
-14.61
-14.88
-9.53
0.44
12.78
25.15
36.31
46.58
57.34
69.95
84.72
100.29
114.16
123.54
126.14
120.71
107.02
85.81
58.94
29.56
1.94
-19.39
-31.14
-32.48
-25.25
-12.63
3.02
21.97
46.81
80.6
123.79
172.28
218.05
251.64
265.56
256.61
226.09
178.07
117.13
46.97
-29.42
-107.9
-181.98
-242.74
-280.8
-289.38
-267.85
-223.26
-168.85
-119.39
-85.17
-67.78
-60.24
-51.75
-34.33
-7.54
21.32
41.63
45.58
32.49
9.03
-14.07
-27.18
-25.85
-12
7.78
25.71
36.11
37.61
33.23
28.78
29.85
38.76
53.4
68.09
76.81
76.22
67.26
54.26
42.45
35.31
33.15
33.63
33.39
29.81
22.11
11.32
-0.83
-13.23
-26.13
-40.92
-59.21
-81.46
-106.22
-130.41
-150.33
-162.82
-166.06
-159.68
-144.44
-121.75
-93.49
-62.39
-32.32
-8.22
4.89
3.43
-13.41
-43.18
-81.11
-121.82
-160.9
-195.72
-225.07
-248.54
-266.31
-279.79
-292.16
-307.87
-330.85
-361.9
-397.1
-428.49
-447.3
-447.81
-429.64
-397.31
-357.35
-315
-272.34
-228.86
-183.42
-136.14
-88.86
-43.92
-2.58
36.14
75.22
118.38
168.27
225.37
287.48
349.93
406.58
450.51
475.14
475.73
450.98
404.43
344.36
281.71
226.58
184.69
155.74
134.68
115.18
93.24
68.74
44.2
21.81
1.18
-20.36
-45.03
-71.54
-94.15
-105.05
-98.59
-74.9
-40.47
-5.29
21.7
36.28
39.99
38.25
36.99
39.89
47.36
57.37
67.4
75.9
82.93
89.65
97.31
106.31
115.95
124.78
131.57
136.1
139.32
142.73
147.41
153.22
158.76
162.11
161.9
158.34
153.29
149.51
149.3
153.42
160.86
169.74
178.29
185.89
193.42
202.67
215.12
230.98
248.93
266.6
282.01
293.58
300.19
300.87
294.51
279.91
255.98
222.45
179.83
129.98
74.36
13.45
-52.38
-120.96
-186.69
-240.57
-272.64
-276.25
-250.61
-203.14
-147.17
-96.75
-61.43
-43.73
-40.12
-44.37
-56.96
-76.65
-100.77
-125.02
-144.53
-155.24
-155.25
-145.42
-129.06
-111.33
-96.09
-85.67
-80.22
-78.34
-77.13
-74.17
-68.68
-61.93
-57.08
-56.41
-61.02
-70.4
-82.86
-96.27
-109.64
-124.18
-139.4
-157.45
-180.65
-211.38
-251.34
-300.45
-355.81
-411.23
-458.16
-487.95
-495.44
-480.13
-446.75
-403.27
-357.63
-315.02
-276.99
-242.43
-209.45
-177.25
-145.84
-115.44
-85.68
-55.33
-22.8
12.93
51.75
92.55
133.34
172.46
209.21
244.03
278.22
313.49
350.93
390.41
430.17
467.01
497.13
516.91
523.4
514.5
488.95
446.48
388.26
317.29
238.68
159.15
85.99
25.44
-18.56
-44.98
-55.59
-54.19
-45.7
-34.92
-25.47
-18.99
-14.88
-11.07
-5.14
4.32
17.13
31.64
45.67
57.69
67.64
76.97
88.05
102.84
121.15
140.04
154.13
157.4
145.82
119.19
81.08
36.93
-8.58
-53.2
-97.11
-141.18
-185.05
-226.19
-260.7
-285.1
-297.71
-298.74
-289.43
-271.22
-246.13
-217.97
-193.43
-181.47
-190.47
-224.2
-278.9
-343.18
-401.47
-439.68
-450.04
-433.14
-396.31
-348.78
-297.24
-244.16
-189.41
-133.21
-78.75
-32.21
-0.31
12.67
6.32
-16.78
-53.06
-99.34
-152.16
-206.3
-253.6
-283.84
-287.97
-261.78
-207.9
-134.98
-54.2
24.98
97.4
162.5
222.45
279.79
335.49
388.14
434.39
469.77
489.59
489.87
468.29
425.11
363.65
290.27
213.67
143.26
87.17
50.13
31.9
27.41
28.34
26.21
15.69
-3.51
-26.87
-47.35
-58.91
-59.06
-49.35
-34.02
-17.35
-1.91
11.78
24.16
34.99
42.88
45.92
43.2
35.9
27.27
21.24
20.65
25.89
34.78
43.78
49.61
50.8
48.12
44.04
41.43
42.18
46.55
53.18
59.9
64.8
67.02
67.07
66.28
66.06
67.08
68.97
70.56
70.61
68.44
64.3
59.09
53.84
49.2
45.23
41.54
37.73
33.74
29.86
26.64
24.52
23.67
23.94
25.02
26.62
28.58
30.9
33.69
37.05
41.04
45.57
50.45
55.37
60.01
64.03
67.12
69.02
69.43
67.89
63.54
54.92
40.18
17.64
-13.18
-50.91
-91.99
-131.47
-164.31
-186.92
-197.94
-198.27
-190.17
-176.15
-158.25
-137.71
-115.43
-92.26
-69.28
-47.73
-28.71
-12.94
-0.65
8.36
14.59
18.63
21.09
22.62
23.87
25.51
28.05
31.65
35.97
40.09
42.74
42.72
39.28
32.49
23.3
13.32
4.49
-1.41
-3.19
-0.45
6.28
15.81
26.46
36.56
44.8
50.5
53.65
54.7
54.32
53.07
51.22
48.72
45.26
40.28
33.11
