0
0
0
0
0
0
0
0
0
0
0
0.01
0.01
0
-0.03
-0.05
-0.05
0
0.13
0.36
0.66
1.01
1.37
1.72
2.06
2.4
2.79
3.24
3.8
4.42
5.06
5.66
6.2
6.68
7.15
7.68
8.31
9.14
10.09
11.04
11.88
12.56
13.14
13.76
14.65
15.96
17.91
20.32
22.9
25.38
27.58
29.57
31.68
34.32
37.81
42.54
48.15
54.1
59.83
64.97
69.58
74.14
79.34
85.71
93.76
103
112.62
121.73
129.77
136.75
143.3
150.75
157.77
166.64
177.95
191.79
206.97
220.57
228.25
225.36
208.53
176.87
132.76
80.05
23.07
-34.94
-92.44
-149.16
-205.23
-260.37
-313.74
-363.86
-409.81
-450.87
-486.44
-515.65
-537.11
-549.06
-549.75
-538.11
-513.89
-478.3
-433.44
-381.95
-326.45
-269.2
-211.92
-155.87
-102.09
-51.43
-4.87
36.71
72.66
102.7
126.97
145.98
160.45
171.07
178.48
183.07
185.13
184.89
182.61
178.66
173.44
167.36
160.76
153.9
146.92
139.89
132.84
125.83
118.92
112.17
105.67
99.46
93.57
88.02
82.83
78
73.53
69.44
65.74
62.43
59.53
57.04
54.93
53.2
51.8
50.69
49.76
48.91
47.97
46.77
45.13
42.89
39.91
36.14
31.56
26.2
20.22
13.79
7.17
0.63
-5.58
-11.19
-16.02
-19.93
-22.85
-24.76
-25.73
-25.85
-25.26
-24.08
-22.46
-20.52
-18.35
-16.02
-13.56
-11.03
-8.46
-5.85
-3.23
-0.6
2.07
4.75
7.48
10.29
13.15
16.04
18.97
21.94
25
28.16
31.48
35
38.78
42.75
46.86
51.08
55.41
59.87
64.47
69.26
74.28
79.65
85.22
90.89
96.61
102.35
108.07
113.78
119.46
125.13
130.83
136.28
141.26
145.56
148.96
151.18
151.89
150.6
146.64
141.35
135.24
128.64
121.78
114.83
107.96
101.25
94.84
88.82
83.33
78.19
73.26
68.5
63.84
59.26
54.75
50.37
46.16
42.24
38.5
34.89
31.39
28.02
24.81
21.8
19.01
16.51
14.37
12.48
10.78
9.25
7.84
6.55
5.35
4.23
3.18
2.19
1.17
0.08
-1.09
-2.34
-3.59
-4.79
-5.88
-6.82
-7.59
-8.24
-8.82
-9.37
-9.89
-10.38
-10.8
-11.15
-11.45
-11.76
-12.19
-12.81
-13.67
-14.75
-15.94
-17.13
-18.24
-19.31
-20.44
-21.86
-23.79
-26.29
-29.29
-32.55
-35.74
-38.66
-41.31
-43.99
-47.15
-51.24
-56.5
-62.8
-69.69
-76.59
-83.05
-89.06
-95.05
-101.75
-109.9
-119.89
-131.54
-144.25
-157.18
-169.69
-181.6
-193.23
-205.29
-218.72
-234.59
-253.85
-276.84
-302.78
-329.24
-352.36
-367.76
-371.97
-363.82
-344.89
-318.84
-289.87
-261.22
-234.34
-209.23
-185.38
-162.76
-142.01
-124.05
-109.28
-97.2
-86.52
-75.86
-64.4
-52.28
-40.53
-30.47
-23.1
-18.67
-16.64
-15.87
-15.11
-13.35
-10.07
-5.38
0.15
5.59
9.96
12.42
12.55
10.42
6.71
2.51
-0.92
-2.68
-2.48
-0.81
1.31
2.9
3.56
3.74
4.58
7.34
12.82
20.92
30.74
40.83
49.71
56.1
59.14
58.44
54.19
47.15
38.48
29.39
20.83
13.45
7.72
4.23
3.65
6.28
11.48
17.5
21.82
22.3
18.31
11.12
3.47
-1.77
-2.8
0.42
6.49
13.35
19.18
22.83
23.87
22.4
18.89
14.1
8.96
4.33
0.62
-2.52
-6.08
-11.33
-19.02
-28.83
-39.27
-48.18
-53.57
-54.36
-50.69
-43.65
-34.55
-24.3
-13.21
-1.36
10.87
22.54
32.4
39.51
43.76
45.91
47.02
47.74
48.07
47.69
46.71
46.3
48.64
55.95
69.2
87.19
106.64
123.34
133.67
135.88
130.29
118.75
103.7
87.35
71.43
57.34
46.39
39.83
38.37
41.56
47.31
52.03
51.69
43.46
27.23
6.13
-14.09
-27.09
-28.13
-15.85
7.59
37.6
69.11
98.28
123.14
143.26
158.62
168.88
173.28
171.14
162.5
148.41
130.44
109.89
87.2
61.87
33.23
1.27
-32.63
-65.94
-95.7
-119.44
-135.75
-144.28
-145.44
-140.14
-129.53
-115.17
-98.84
-82.33
-67.08
-54.02
-43.52
-35.69
-30.67
-28.63
-29.79
-34.2
-41.55
-51.17
-61.92
-72.17
-79.96
-83.46
-81.67
-74.91
-64.78
-53.51
-42.86
-33.48
-24.88
-16.16
-6.99
2.06
9.79
15.28
18.6
20.81
23.4
27.31
32.42
37.68
41.71
43.5
42.77
39.99
36.13
32.4
30.03
30.05
33.17
39.48
48.51
59.23
70.23
79.98
86.96
89.79
87.39
79.24
65.66
48.05
28.57
9.61
-7.05
-20.99
-33.34
-46.26
-61.85
-80.86
-101.87
-121.5
-135.56
-140.81
-136.26
-123.7
-107.02
-90.97
-79.73
-75.77
-79.51
-89.13
-101.06
-110.75
-113.89
-107.59
-91.39
-67.56
-40.2
-13.87
7.95
23.66
33.32
37.93
38.53
36
31.18
25.21
19.54
15.55
14.02
14.76
16.93
19.48
21.74
23.6
25.4
27.46
29.85
32.3
34.4
35.84
36.44
36.21
35.23
33.57
31.22
28.16
24.28
19.42
13.61
6.94
-0.31
-7.71
-14.86
-21.48
-27.35
-32.35
-36.55
-40.16
-43.64
-47.6
-52.45
-58.1
-63.68
-67.69
-68.43
-64.82
-56.74
-45.21
-31.88
-18.27
-5.31
6.77
18.06
28.47
37.46
44.15
47.7
47.81
44.96
40.26
35.1
30.66
27.55
25.84
25.04
24.45
23.41
21.6
19.2
16.76
14.95
14.11
13.87
13.2
10.89
6.13
-0.87
-8.86
-16.09
-21.1
-23.38
-23.54
-22.92
-22.8
-23.85
-25.93
-28.29
-30.09
-30.63
-29.49
-26.28
-20.66
-12.6
-2.92
6.46
13.02
14.6
10.81
3.69
-2.75
-4.33
1.35
13.56
28.86
42.85
52.31
56.59
57.36
57.24
58.21
60.76
64.26
67.95
71.69
75.97
81.39
87.81
94.04
98.21
98.56
94.14
85.05
72.39
57.88
43.45
30.71
20.64
13.34
8.18
4.22
0.68
-2.86
-6.79
-11.64
-18.18
-26.84
-37.06
-46.83
-53.24
-53.75
-47.57
-36.22
-22.89
-10.81
-1.63
5.17
11.49
19.08
28.21
37.19
43.01
42.68
34.45
18.38
-3.62
-28.35
-51.94
-70.53
-80.73
-80.24
-68.46
-47.01
-19.78
7.82
30.13
42.83
44.33
36.11
22.14
7.5
-3.29
-7.4
-4.07
5.58
19.35
34.58
48.56
58.91
63.84
62.52
55.34
43.77
30.04
16.48
4.97
-3.32
-7.89
-8.78
-6.4
-1.58
4.45
10.18
14.12
15.16
12.86
7.51
0.1
-7.98
-15.22
-20.26
-22.16
-20.63
-16.13
-9.79
-3.16
2.25
5.19
4.99
1.51
-4.94
-13.8
-24.38
-35.93
-47.72
-58.97
-68.83
-76.48
-81.04
-81.67
-77.54
-68.01
-52.94
-33.08
-10.25
12.83
33.25
48.85
58.78
63.63
64.99
64.63
63.98
63.9
64.77
66.71
69.51
72.53
74.66
74.62
71.39
64.64
54.93
43.46
31.64
20.83
12.06
5.96
2.69
1.7
1.76
1.2
-1.6
-7.56
-16.51
-27.23
-37.88
-46.5
-51.44
-51.62
-46.72
-37.24
-24.71
-11.44
-0.09
7.19
9.46
7.32
2.54
-2.68
-6.4
-7.15
-3.81
4.67
19.2
40.05
66.43
96.48
127.98
159.19
189.49
219.02
247.86
275.14
298.81
316.37
325.97
327.37
321.97
312.04
299.7
286.19
271.79
256.25
239.45
221.64
203.4
185.28
167.54
149.98
132.01
113
92.54
70.72
48.03
25.14
2.6
-19.49
-41.5
-64.19
-88.31
-114.23
-141.88
-171
-201.58
-233.86
-268.03
-303.64
-339.41
-373.13
-402.5
-426.11
-443.91
-456.9
-466.39
-473.16
-477.3
-479.28
-479.87
-480.26
-481.39
-483.21
-484.55
-483.71
-479.31
-471.32
-461.83
-452.61
-443.79
-433.53
-418.93
-397.73
-369.99
-337.64
-304.4
-275.43
-253.9
-239.96
-230.97
-222.34
-208.9
-186.3
-151.59
-105.86
-56.48
-13.29
14.13
20.09
5.24
-23.65
-56.45
-82.52
-79.23
-33.45
57.06
181.65
320.95
455.22
570.68
656.13
714.74
750.34
763.21
753.79
724.2
679.04
624.25
565.77
507.61
451.84
397.29
340.08
277.54
209.39
138.2
68.49
4.72
-50.56
-96.86
-136.9
-175.44
-216.29
-260.93
-308.09
-354.61
-396.79
-432.14
-459.73
-480.89
-498.54
-515.74
-535.18
-558.6
-585.98
-614.58
-638.73
-650.27
-641.35
-607.22
-548.27
-470.18
-382.06
-293.11
-209.81
-134.95
-68.55
-9.8
41.55
85.01
120.08
147.23
168.2
185.34
200.65
214.91
227.67
237.61
243.48
244.78
242.01
236.41
229.34
221.57
213.05
202.99
190.41
174.69
156.05
135.63
115.13
96.36
80.75
68.98
60.97
56.15
53.7
52.99
53.62
55.42
58.35
62.33
67.17
72.61
78.43
84.4
90.47
96.51
102.36
107.74
112.23
115.24
116.18
114.5
109.8
101.92
90.85
76.79
60.09
41.32
21.21
0.71
-19.07
-37.11
-52.44
-64.42
-72.7
-77.26
-78.34
-76.28
-71.39
-63.91
-54.03
-42.01
-28.25
-13.32
2.1
17.32
31.95
45.94
59.61
73.51
88.19
103.99
120.88
138.63
156.81
175.07
193.23
211.37
229.93
249.75
272.07
298.09
328.23
361.28
394.23
422.76
442.64
451.07
447.6
434.14
414.14
391.31
368.36
346.49
325.2
303.21
279.4
253.79
227.78
203.65
183.46
168.04
156.47
146.42
135.03
120.2
101.19
79.05
56.28
36.13
21.54
13.9
12.08
12.15
8.39
-4.83
-30.41
-66.67
-106.98
-141.17
-158.48
-150.94
-116.22
-59.14
8.7
71.55
113.54
123.51
98.54
44.99
-23.81
-92.28
-147.86
-184.6
-203.63
-211.03
-214.19
-218.74
-227.5
-241.13
-259.41
-282.18
-309
-338.48
-367.62
-392.29
-408.64
-414.67
-411.06
-400.71
-387.55
-374.87
-364.11
-354.69
-344.7
-332.07
-315.76
-296.26
-275.33
-255.21
-237.6
-223.09
-210.98
-199.82
-188.09
-174.93
-160.43
-145.52
-131.59
-119.88
-111.16
-105.54
-102.62
-101.73
-102.19
-103.45
-105.15
-106.95
-108.51
-109.38
-109.02
-106.9
-102.49
-95.39
-85.33
-72.2
-56.08
-37.32
-16.53
5.53
28
50.21
71.75
92.6
113.04
133.45
154.08
174.86
195.36
214.86
232.62
248.16
261.47
273.06
283.88
294.89
306.62
318.83
330.3
339.09
343
340.34
330.48
314.34
294.32
273.96
256.94
245.95
241.65
242.2
243.82
242.08
233.53
216.92
193.63
166.9
140.55
117.6
99.58
86.41
76.9
69.36
62.11
53.95
44.3
33.45
22.51
13.07
6.69
4.28
5.66
9.49
13.77
16.54
16.65
14.21
10.36
6.67
4.25
3.25
2.96
2.45
1.16
-0.75
-2.5
-3.24
-2.39
0.06
3.82
8.39
13.22
17.71
21.29
23.89
26.19
29.66
35.9
45.52
57.33
68.5
75.87
77.53
73.89
67.52
61.76
59.08
59.98
63.14
66.53
68.72
69.52
69.49
68.86
66.66
60.91
49.64
32.39
11.1
-10.48
-28.31
-39.9
-45.27
-46.42
-45.99
-45.72
-45.86
-45.57
-43.93
-40.66
-36.13
-30.86
-24.99
-18.27
-10.43
-1.75
6.95
14.58
20.16
23.27
23.87
22.23
18.81
14.35
9.87
6.65
5.79
7.76
12.03
17.07
20.91
21.86
19.18
13.33
5.81
-1.33
-6.01
-6.8
-3.55
2.39
8.3
10.95
7.73
-2.17
-17.24
-34.05
-48.26
-56.23
-56.14
-48.48
-35.8
-21.65
-9.47
-1.72
0.67
-1.77
-7.44
-14.39
-20.91
-25.89
-28.91
-29.94
-29.14
-26.75
-23.06
-18.48
-13.54
-8.74
-4.45
-0.8
2.43
5.5
8.61
11.58
13.89
14.9
14.2
11.86
8.37
4.52
0.96
-2
-4.48
-7.02
-10.34
-15.05
-21.22
-28.3
-35.12
-40.33
-42.96
-42.76
-40.16
-35.94
-30.79
-25.1
-19.01
-12.63
-6.16
0.24
6.54
12.86
19.05
24.38
27.5
26.98
22.14
13.7
3.72
-5.1
-10.49
-11.39
-8.2
-2.53
3.42
7.67
8.97
7.15
3.04
-2.08
-7.24
-12.29
-17.84
-24.66
-32.71
-40.67
-46.08
-46.4
-40.25
-28.14
-12.35
4.01
18.2
28.66
35.02
37.73
37.57
35.4
32
28.13
24.28
20.62
16.94
12.86
8.06
2.61
-3.16
-8.74
-13.68
-17.71
-20.61
-22.02
-21.46
-18.54
-13.42
-6.97
-0.61
4.3
6.9
7.2
5.89
4
2.63
2.73
5.04
9.85
16.72
24.23
30.24
32.58
30.07
23.34
14.72
7.4
4.07
5.81
11.66
19.22
25.77
29.37
29.65
27.83
26.06
26.56
30.7
38.46
48.63
59.22
68.09
73.38
73.75
68.39
57.13
40.65
20.58
-0.65
-20.32
-36.21
-47.24
-53.74
-57.1
-59.07
-60.93
-63.04
-64.72
-64.75
-62.21
-57.04
-50.33
-43.89
-39.37
-37.33
-36.86
-35.84
-31.98
-23.87
-11.77
2.38
15.69
25.41
29.73
28.21
21.56
11.22
-1.05
-13.24
-23.16
-28.66
-28.29
-22.07
-11.87
-0.99
7.15
10.38
8.77
4.41
0.37
-0.81
1.82
7.47
14.01
18.89
19.91
15.87
6.77
-6.17
-20.8
-34.7
-45.77
-52.88
-56
-56.17
-55.13
-54.75
-56.58
-61.39
-69.11
-78.86
-89.27
-99.02
-107.21
-113.75
-119.31
-125.05
-132.01
-140.4
-149.01
-155.26
-155.77
-147.49
-128.85
-100.15
-63.25
-20.34
26.72
76.4
126.59
173.61
212.28
237.25
245.21
236.63
216.05
190.25
165.64
146.06
132.16
122.44
114.89
108.25
102.08
96.02
89.31
80.76
69.57
56.14
42.24
30.51
23.5
22.58
27.46
36.26
46.01
53.59
56.4
53.24
44.34
31.01
14.74
-3.72
-24.6
-48.75
-76.59
-107.25
-138.2
-165.71
-185.74
-194.79
-190.46
-171.81
-139.58
-96.52
-47.33
1.82
44.61
76.19
94.55
100.79
98.34
91.25
82.6
73.61
63.72
51.58
36.07
17.06
-4.57
-27.17
-48.87
-68
-83.18
-93.56
-98.65
-98.52
-93.78
-85.58
-75.4
-64.64
-54.35
-44.91
-36.17
-27.8
-19.73
-12.44
-6.87
-3.89
-3.59
-5
-6.4
-6.31
-4.31
-1.28
1.21
2.01
1.06
-0.55
-1.45
-1.01
0.06
0.01
-2.88
-9.31
-18.39
-28.09
-36.09
-40.78
-41.7
-39.44
-35.04
-29.54
-23.71
-18.01
-12.74
-8.11
-4.17
-0.79
2.43
5.83
9.38
12.43
13.79
12.26
7.27
-0.57
-9.5
-17.12
-21.24
-20.65
-15.64
-7.71
1.05
8.79
14.48
18.09
20.3
21.99
23.84
26.04
28.29
29.99
30.38
28.82
25.01
19.24
12.47
6.25
2.22
1.62
4.88
11.38
19.75
28.25
35.15
39.04
38.88
34.29
25.79
15
4.4
-3.41
-6.6
-4.88
0.38
6.74
11.64
13.26
11.01
5.5
-1.76
-8.92
-14.23
-16.51
-15.59
-12.42
-8.85
-7.11
-9.08
-15.5
-25.8
-38.16
-50.09
-59.27
-64.24
-64.87
-62.28
-58.35
-54.9
-52.98
-52.5
-52.41
-51.33
-48.13
-42.62
-35.62
-28.83
-24.17
-23.16
-26.23
-32.3
-38.98
-43.31
-42.83
-36.65
-25.84
-12.88
-0.59
9.04
15.34
18.61
19.29
17.24
11.68
1.94
-11.64
-27.27
-42.18
-53.63
-60.06
-61.41
-58.61
-52.6
-43.76
-31.97
-17.2
-0.19
17.58
34.4
49.05
61.25
71.18
78.83
83.37
83.35
77.55
66.09
51
35.86
24.57
19.81
22.03
29.25
37.94
44.39
46.11
42.71
35.79
28.19
22.76
21.11
22.83
25.57
25.85
20.44
7.9
-10.72
-31.86
-50.53
-61.81
-62.13
-50.06
-26.38
6.25
43.83
81.56
114.51
138.49
151.07
152.18
144.17
130.88
116.23
102.86
91.46
81.23
70.79
58.95
45.06
28.76
9.83
-11.5
-34.04
-55.22
-71.47
-79.43
-77.52
-66.76
-50.65
-33.65
-19.57
-10.49
-6.7
-7.48
-11.96
-19.49
-29.36
-40.42
-50.95
-59.11
-63.52
-63.88
-61.07
-56.62
-52.19
-48.79
-46.7
-45.39
-43.98
-41.53
-37.56
-32.22
-26.29
-20.94
-17.14
-15.22
-14.58
-13.82
-11.35
-5.99
2.43
13.06
24.32
34.49
42.15
46.54
47.57
45.72
41.93
37.24
32.65
28.75
25.71
23.23
20.77
17.93
14.48
10.52
6.21
1.79
-2.52
-6.4
-9.41
-11.1
-11.05
-9.19
-5.93
-2.28
0.29
0.12
-4.11
-12.83
-25.06
-38.47
-49.9
-56.37
-56.22
-49.74
-39.06
-27.22
-16.94
-9.74
-5.59
-3.38
-1.72
0.4
3.34
6.96
10.94
15.1
19.37
23.7
27.75
30.88
32.35
31.55
28.43
23.6
18.26
13.9
11.86
12.86
16.76
22.51
28.51
33.15
35.31
34.82
32.49
29.83
28.42
29.42
33.05
38.42
43.72
46.69
45.2
37.86
24.6
6.81
-12.7
-30.5
-43.35
-49.19
-47.67
-40.05
-28.33
-14.32
0.75
16.23
31.12
43.32
49.69
46.66
31.22
1.76
-41.46
-96.04
-157.21
-217.96
-269.87
-304.94
-318.13
-309.11
-282.56
-246.35
-208.35
-173.62
-143.23
-115.03
-85.6
-52.16
-13.59
29.25
73.77
115.99
150.97
173.99
181.82
174.05
153.26
124.42
93.31
64.87
42.41
27.54
20.8
22.07
30.68
45.12
62.92
80.99
96.47
107.6
114.2
117.51
119.32
121.06
123.31
125.67
127.22
127.1
124.72
119.88
112.54
102.72
90.38
75.65
58.79
40.31
20.85
1.13
-18.09
-36.03
-51.93
-65.07
-74.94
-81.46
-85.15
-87.06
-88.43
-90.19
-92.45
-94.49
-95.1
-93.32
-89.03
-83.2
-77.4
-73.14
-71.11
-70.96
-71.59
-71.6
-69.9
-65.83
-59.27
-50.51
-40.09
-28.84
-17.68
-7.59
0.63
6.55
10.21
12.05
12.85
13.39
14.34
16.04
18.53
21.51
24.53
27.07
28.73
29.38
29.14
28.37
27.7
27.85
29.52
33.12
38.63
45.52
52.84
59.53
64.68
67.72
68.39
66.61
62.28
55.4
46.19
35.25
23.62
12.39
2.36
-6.52
-14.79
-23.32
-32.42
-41.64
-49.97
-56.4
-60.54
-62.67
-63.5
-63.4
-62.65
-61.69
-61.34
-62.81
-66.35
-70.15
-69.72
-59.39
-35.02
3.2
49.78
95.49
130.69
148.98
148.89
133.53
108.3
78.55
48.17
19.5
-5.94
-27.08
-42.95
-53.45
-59.4
-62.4
-64.26
-66.08
-67.93
-68.99
-68.24
-64.96
-59.51
-53.36
-48.51
-47.05
-50.16
-57.72
-68.08
-78.38
-85.38
-86.5
-80.76
-69.14
-54.34
-39.78
-28.44
-21.97
-20.34
-22.07
-24.93
-26.56
-24.98
-19.03
-8.4
6.15
23
40.11
55.47
67.7
76.21
81.21
83.23
82.81
80.15
75.1
67.48
57.43
45.76
33.87
23.46
15.8
11.17
8.65
6.63
3.62
-1.02
-6.94
-13.2
-18.92
-23.72
-27.68
-30.91
-33.26
-34.31
-33.8
-31.93
-29.38
-26.81
-24.32
-21.19
-16.19
-8.3
2.56
15.28
27.91
38.41
45.2
47.73
46.49
42.77
38.16
34.15
31.7
31.06
31.76
32.76
32.86
30.98
26.57
19.72
11.1
1.68
-7.7
-16.46
-24.44
-31.64
-38.04
-43.56
-48.06
-51.45
-53.74
-54.96
-55.1
-54.11
-51.86
-48.29
-43.46
-37.54
-30.84
-23.7
-16.48
-9.49
-2.95
3.13
8.97
14.91
21.34
28.39
35.94
43.59
50.84
57.1
61.76
64.14
63.54
59.52
52.15
42.21
31.21
21.04
13.38
9.07
7.7
7.56
6.14
0.93
-9.63
-25.5
-44.86
-64.41
-80.25
-88.74
-87.53
-75.94
-55.23
-28.3
0.86
27.83
48.57
60.16
61.35
52.84
37.17
18.13
0.05
-13.26
-19.36
-17.67
-9.49
2.46
14.99
25.39
32.08
34.86
34.63
32.61
29.82
26.62
22.87
18.26
12.87
7.31
2.59
-0.38
-1.4
-1
-0.4
-0.86
-3.11
-7.03
-11.74
-16
-18.75
-19.5
-18.43
-16.32
-14.19
-13.08
-13.78
-16.53
-21.01
-26.32
-31.25
-34.47
-34.99
-32.35
-26.69
-18.79
-9.91
-1.47
5.22
9.26
10.41
9.16
6.4
3.18
0.21
-2.33
-4.48
-6.25
-7.24
-6.59
-3.34
3.17
12.8
24.61
37.06
48.53
57.67
63.75
66.73
67.25
66.54
66.17
67.56
71.33
76.55
80.36
78.49
66.36
40.94
2.36
-45.46
-95.54
-139.71
-170.8
-184.64
-180.61
-161.27
-131.16
-95.21
-57.76
-21.97
10.21
37.74
60.13
77.21
89.06
96.14
99.49
100.68
101.48
103.13
105.71
107.75
106.84
100.8
88.93
72.76
55.31
39.85
27.96
18.68
8.85
-5.33
-26.38
-54.41
-87
-120.44
-150.86
-175.27
-191.54
-197.98
-193.13
-176.06
-147.11
-108.57
-64.67
-20.55
19.02
50.91
74.15
89.52
98.71
103.37
104.71
103.31
99.31
92.61
82.95
70.28
54.99
38.48
23.35
13.25
12.04
22.56
45.38
78.14
115.91
152
179.83
194.29
192.81
175.3
143.61
100.75
50.52
-2.47
-52.87
-94.73
-122.62
-132.93
-125.14
-102.18
-69.82
-35.13
-4.71
16.55
26.28
24.55
13.56
-2.79
-19.61
-31.89
-36.15
-31.58
-20.98
-10.32
-6.9
-16.77
-41.63
-77.6
-115.72
-144.82
-155.44
-143.42
-111.43
-68.03
-24.78
7.88
23.97
23.69
12.79
0.13
-5.77
0.35
19.07
46.67
77.08
104.21
123.84
134.28
135.96
130.57
120.13
106.68
92.18
78.26
65.88
54.66
42.66
26.4
2.27
-31.93
-75.31
-123.56
-169.83
-206.98
-229.96
-237.02
-229.78
-211.73
-186.89
-158.85
-130.83
-105.91
-87.07
-76.66
-75.57
-83.15
-97.85
-118.26
-143.66
-173.54
-206.22
-237.79
-262.59
-274.69
-269.85
-247.04
-208.28
-157.62
-100.03
-40.8
14.32
59
87.2
94.78
81.6
52.69
17.35
-13.41
-30.42
-29.06
-10.22
20.89
57.08
91.53
119.25
137.38
144.73
141.25
127.86
106.53
80.42
53.44
29.3
10.64
-2.03
-9.81
-14.96
-19.36
-23.61
-26.85
-27.4
-23.88
-16.18
-5.64
5.61
15.62
23.61
30.17
36.87
45.39
56.64
70.41
85.34
99.51
111.18
119.53
124.98
129.14
134.17
141.78
152.38
164.54
175.13
180.2
176.24
161.39
136.11
103.24
66.85
31.06
-1.29
-29.39
-54.47
-79.4
-107.76
-142.72
-185.66
-235
-285.89
-331.13
-363.43
-377.93
-373.99
-355.11
-327.15
-295.68
-264.19
-233.77
-204.22
-175.4
-147.93
-122.7
-99.88
-78.25
-55.5
-29.3
1.67
37.15
75.37
113.47
148.15
176.17
195.01
203.44
201.86
192.03
176.22
156.26
132.84
105.85
75.41
42.9
11.42
-14.91
-32.45
-39.58
-37.65
-30.68
-24.02
-22.51
-28.78
-42.3
-59.59
-75.4
-84.45
-82.98
-69.62
-45.27
-12.5
25.38
64.9
102.66
135.47
160.55
176.05
181.5
178.14
168.57
156.12
143.93
134.2
127.76
124.11
121.77
119.03
114.56
107.95
99.79
91.37
84.16
79.12
76.49
75.63
75.33
74.33
71.67
67.05
60.88
54.14
47.95
43.3
40.65
39.83
40.16
40.76
40.94
40.47
39.62
38.94
38.96
39.97
41.88
44.28
46.59
48.26
48.88
48.28
46.49
43.72
40.29
36.56
32.92
29.69
27.17
25.69
25.75
28.28
34.7
46.54
64.7
88.57
115.25
139.82
156.36
159.86
147.98
122.18
87.32
50.18
17.47
-5.75
-16.64
-14.41
0.24
25.5
58.56
95.75
132.94
166.31
193.07
211.82
222.21
224.31
217.96
202.7
178.27
145.47
106.49
64.76
23.98
-13.13
-45.46
-73.61
-99.25
-124.09
-149.29
-175.52
-203.61
-234.92
-270.84
-311.27
-352.96
-389.11
-410.79
-410.12
-383.53
-333.2
-265.91
-189.9
-111.77
-35.3
37.54
104.49
161.8
205.04
231.4
241.69
240.52
234.24
227.84
222.89
217.55
208.41
193.09
171.73
146.63
120.69
95.69
71.49
46.71
19.93
-9.3
-40.13
-70.98
-100.68
-129.23
-157.88
-188.96
-225.14
-268.76
-320.87
-380.06
-441.73
-498.45
-541.54
-563.73
-561.71
-537.24
-496.22
-446.23
-393.76
-342.57
-293.75
-246.98
-201.83
-158.24
-116.14
-74.9
-33.31
9.86
54.87
100.41
143.69
181.12
209.44
227.02
234.63
235.36
233.77
234.08
238.43
245.94
253.18
255.72
250.15
235.38
212.69
184.83
154.5
123.57
92.99
63.32
35.35
10.32
-10.35
-25.42
-34.34
-37.43
-35.84
-31.41
-26.44
-23.23
-23.46
-27.54
-34.21
-40.84
-44.19
-41.58
-31.7
-14.73
8.29
36.44
69.57
108.37
153.79
205.95
263.09
320.84
372.74
411.65
431.63
429.7
406.87
367.58
318.25
265.04
212.08
161.21
112.74
66.81
24.04
-14.46
-47.85
-76.03
-99.73
-120.22
-138.13
-152.99
-162.18
-162.23
-150.54
-126.86
-93.59
-55.02
-16.27
18.49
46.96
68.83
85.02
97.34
106.33
111.25
110.41
101.54
83.23
55.55
20.3
-19.91
-62.49
-105.95
-150.43
-194.29
-237.43
-280.51
-324.9
-372.15
-423.12
-476.63
-528.61
-572.31
-600.31
-607.98
-595.23
-566.94
-530.94
-494.93
-463.73
-438.4
-417.08
-397
-376.5
-355.17
-333.21
-310.54
-286.45
-260
-230.76
-199.2
-166.46
-134.28
-103.9
-75.72
-49.3
-23.81
1.54
27.21
53.25
79.53
105.96
132.73
160.27
189.04
219.07
250.1
281.6
313.02
344.16
375.18
406.75
439.88
475.44
513.45
552.66
590.22
621.69
641.79
645.68
630.38
595.92
545.23
483.01
414.71
345.25
277.82
213.73
153.05
95.77
43.05
-3.31
-42.4
-74.7
-102.33
-129
-157.72
-188.63
-217.69
-236.9
-237.99
-216.97
-174.61
-115.44
-46.15
26.99
99.15
166.29
224.79
270.16
296.94
302.93
291.29
269.3
246.08
229.3
217.68
207.95
204.14
206.11
209.35
211.47
210.91
206.53
197.52
183.42
165.05
143.31
117.71
87.94
54.48
17.96
-20.68
-59.96
-97.99
-132.12
-160.32
-182.64
-199.97
-213.4
-224.33
-234.05
-243.32
-252.65
-261.98
-271.65
-283.1
-297.86
-317.06
-341.85
-373.45
-412.88
-460.04
-512.22
-563.68
-606.61
-632.87
-636.69
-617.02
-577.81
-526.28
-470.16
-415.28
-364.81
-319.78
-280.14
-245.42
-214.93
-187.47
-161.31
-134.75
-106.73
-77.46
-48.22
-20.45
4.84
27.95
50.67
75.99
107.01
145.27
189.07
232.93
268.68
288.15
286.37
263.52
224.8
178.3
132.01
91.4
58.57
32.72
11.47
-7.85
-27.29
-47.81
-68.86
-88.4
-103.41
-110.89
-109.24
-98.99
-82.36
-62.2
-40.7
-18.66
4.2
28.35
53.58
78.64
101.79
121.69
138.03
151.35
162.41
171.26
176.95
178.14
174.23
166.49
157.99
152.51
152.77
159.01
168.68
177.66
182.05
179.82
171.47
159.44
146.82
136
127.9
122
117.02
111.91
106.43
101.34
97.81
96.59
97.39
98.68
98.31
94.42
86.32
74.81
61.8
49.44
39.21
31.44
25.36
19.65
13.02
4.75
-5.16
-16.13
-27.13
-37.1
-45.09
-50.57
-53.45
-54.12
-53.15
-51.06
-48.01
-43.9
-38.67
-32.49
-26.16
-20.76
-17.27
-16.07
-16.69
-18.04
-19
-19.08
-18.74
-19.33
-22.39
-28.92
-38.79
-50.52
-61.63
-69.28
-71.14
-65.93
-53.73
-35.88
-14.57
7.63
28.16
44.92
56.5
62.39
63.04
59.67
53.91
47.33
40.98
35.32
30.34
25.91
22.08
19.09
17.13
16.04
15.24
13.89
11.35
7.44
2.59
-2.36
-6.55
-9.35
-10.48
-9.94
-7.93
-4.72
-0.7
3.52
7.14
9.33
9.49
7.46
3.64
-1.18
-5.97
-9.92
-12.57
-13.85
-14.02
-13.35
-12.02
-10.08
-7.61
-4.77
-1.83
0.93
3.49
6.01
8.76
11.79
14.8
17.14
18.09
17.23
14.62
10.89
6.99
3.84
2.05
1.74
2.58
3.85
4.76
4.71
3.54
1.64
-0.17
-1.1
-0.81
0.33
1.15
0.24
-3.37
-9.59
-17.05
-23.54
-26.97
-26.37
-22.39
-16.99
-12.47
-10.37
-10.79
-12.61
-14.26
-14.75
-14.21
-13.68
-14.47
-17.27
-21.72
-26.57
-30.27
-31.69
-30.57
-27.66
-24.31
-21.96
-21.45
-22.73
-24.75
-25.81
-24.29
-19.27
-11.06
-1.22
7.88
13.81
14.67
9.71
-0.48
-14.08
-28.34
-40.18
-46.92
-46.94
-40.18
-28.23
-13.82
0.06
11.07
18.05
21.08
21.05
19.12
16.36
13.77
12.36
13.22
17.18
24.4
34.09
44.64
54.16
61.06
64.48
64.16
60.1
52.41
41.36
27.88
13.95
2.43
-3.97
-4.12
0.35
5.23
5.3
-3.47
-21.84
-46.8
-72.63
-93.04
-103.34
-101.82
-89.91
-71.44
-51.75
-36.58
-31.02
-38.08
-57.42
-84.41
-110.79
-126.9
-125.12
-103.06
-64.74
-19.58
21.08
48.13
57.59
51.61
36.81
21.32
11.71
11.06
18.56
30.59
42.56
50.6
52.77
49.33
42.23
34.1
27.34
23.49
22.98
25.57
30.54
36.99
43.83
49.91
54.13
55.83
55.1
52.76
50.15
48.51
48.45
49.77
51.65
53.14
53.64
53.14
52.07
50.99
50.21
49.61
48.76
46.99
43.76
38.69
31.91
24.09
16.55
11.04
9.08
11.39
17.12
23.93
28.37
26.99
17.26
-1.68
-28.64
-60.47
-92.51
-119.48
-136.71
-141.42
-133.36
-114.69
-88.99
-59.94
-30.38
-1.98
24.24
47.39
66.38
80.15
88.08
90.34
88
82.66
76.11
69.87
64.81
60.86
56.98
51.79
44.25
34.59
24.41
16.49
13.82
18.66
31.83
52.52
78.36
105.87
131
149.74
158.93
156.99
144.03
121.78
92.84
59.89
25
-10.57
-46.77
-84.43
-124.82
-168.62
-214.56
-258.57
-294.32
-315.19
-316.67
-299.01
-266.24
-224.16
-177.15
-126.29
-70.4
-9.12
53.87
110.47
149.62
163.38
150.26
115.6
68.7
18.63
-28.42
-69.34
-102.18
-126.98
-143.43
-152.4
-156.19
-157.68
-158.54
-158.01
-153.11
-139.77
-117.78
-88.54
-55.13
-20.24
15.36
52.85
94
132.86
173.89
210.62
236.44
246.18
238.55
216.83
187.51
157.33
130.11
106.39
81.74
52.77
19.26
-14.72
-42.35
-57.58
-58.18
-47.08
-30.1
-15.19
-7.1
-6.7
-11.61
-18.56
-25.91
-34.67
-47.84
-67.54
-94.25
-124.36
-151.55
-168.9
-171.24
-156.45
-125.71
-82.96
-33.93
13.97
53.37
78.24
85.42
75.58
53.17
25.24
-0.35
-16.54
-18.68
-5.22
21.78
56.96
92.61
120.65
134.78
132.25
114.43
86.14
53.96
24.51
3.01
-7.48
-6.21
5.49
24.68
47.42
69.39
86.46
94.97
92.3
77.39
51.58
18.92
-14.19
-40.68
-54.87
-54.31
-40.69
-19.1
3.59
20.7
26.93
19.14
-3.12
-37.17
-77.13
-114.87
-141.96
-152.03
-143.01
-117.65
-82.55
-45.9
-15.34
3.72
8.84
0.63
-17.83
-42.12
-67.82
-91.81
-112.78
-130.88
-146.45
-158.79
-165.66
-164.12
-151.98
-128.91
-96.71
-58.71
-18.65
20.17
55.06
83.85
104.39
114.9
114.49
103.9
85.92
65.36
47.79
37.91
38.08
47.7
63.89
82.94
101.68
118.13
131.1
139.48
141.82
136.5
122.73
101.46
75.89
50.83
31.27
21.02
21.5
31.85
49.66
72.03
96.37
120.5
142.36
159.69
170.29
172.84
167.89
158.15
148.02
142.02
143.19
151.58
164.34
176.34
181.83
176.24
157.74
128.14
92.49
57.72
30.65
15.86
14.65
25
42.72
62.89
81.21
94.91
103
106.22
106.54
106.39
107.83
111.86
118.16
125.23
131.01
133.54
131.69
125.34
115.37
103.26
90.68
78.79
67.9
57.34
45.73
31.63
14.34
-5.84
-27.78
-50.12
-71.57
-91.13
-108.06
-122
-133.16
-142.49
-151.69
-162.29
-175.12
-189.96
-205.8
-221.96
-239.16
-260
-287.99
-325.28
-370.21
-416.25
-452.93
-468.87
-455.94
-412.52
-345.06
-266.83
-194.35
-142.35
-119.6
-126.77
-157.05
-199.17
-241.05
-272.89
-288.58
-285.61
-264.19
-226.5
-176.3
-118.62
-59.48
-4.62
42.14
80.11
111.94
142.76
178.4
223.1
277.54
337.72
395.37
440.04
462.52
458.06
428.17
379.82
322.6
264.87
211.47
163.11
118.16
75.07
33.57
-5.56
-42.09
-77.64
-115.32
-157.7
-204.37
-250.55
-287.97
-307.95
-304.7
-277.43
-230.07
-169.07
-101.18
-32.63
30.46
81.57
114.4
124.94
113.56
85.39
48.11
8.21
-31.91
-73.86
-120.08
-170.36
-219.7
-260.27
-285.36
-293.06
-287.13
-274.45
-261.14
-249.76
-239.44
-227.95
-214.39
-200.19
-188.03
-179.76
-174.73
-169.97
-162.06
-149.09
-131.64
-112.09
-93.04
-75.75
-59.76
-43.56
-25.74
-5.94
15.17
36.66
58.08
79.62
101.7
123.93
144.72
161.54
172.17
176.01
174.88
172.56
173.39
180.48
194.53
213.68
234.59
253.85
269.15
279.77
286.1
289
289.37
288.07
286.07
284.58
284.62
286.61
289.9
292.95
293.86
291.09
284.06
273.01
258.57
241.28
221.59
200.03
177.56
155.37
134.22
113.7
92.34
68.43
41.41
12.62
-15.32
-40.25
-62.27
-84.09
-109.52
-140.69
-176.03
-210.18
-236.17
-248.57
-245.9
-230.99
-209.47
-187.19
-168.1
-153.41
-142.28
-133.26
-125.55
-119.4
-115.55
-113.96
-112.92
-109.22
-99.57
-82.51
-59.72
-35.87
-16.83
-6.93
-7.07
-14.36
-23.64
-29.89
-30.53
-26.17
-20.11
-16.7
-19.46
-29.8
-46.48
-65.84
-82.75
-91.92
-89.46
-74.34
-49.34
-20.81
2.81
13.78
7.84
-14.04
-46.11
-80.36
-109.83
-131.1
-144.62
-153.11
-159
-162.79
-163.05
-157.93
-147
-132.03
-116.43
-103.68
-96.16
-94.67
-98.74
-107.41
-119.28
-132.22
-142.96
-147.23
-140.8
-121.27
-89.59
-50.7
-12.67
15.58
27.05
19.13
-5.34
-38.78
-71.13
-92.86
-97.54
-83.36
-52.9
-12.12
31.34
69.63
95.75
104.22
91.78
58.19
7.01
-54.22
-115.18
-165.04
-195.48
-203.02
-189.71
-161.81
-126.99
-91.49
-58.39
-27.91
1.16
29.71
57.51
83.73
108.04
131.52
156.41
185.22
219.11
256.91
295.14
329
353.87
366.63
366.41
354.57
334.58
310.75
287.42
268.14
255.26
249.71
251.1
258.17
269.28
283.65
300.58
319
336.7
350.25
355.72
349.86
331.53
302.15
266.17
228.83
194.39
165.17
141.48
122.65
108.05
97.67
87.87
76.91
63.77
48.39
31.68
15.33
1.15
-9.44
-14.41
-14.66
-11.15
-5.19
1.7
7.98
12.22
13.19
10.57
4.52
-4.66
-15.7
-27.3
-38.18
-47.33
-54.03
-58.02
-59.58
-59.5
-59.05
-58.86
-59.17
-59.66
-59.69
-58.68
-56.58
-54.14
-52.95
-55.04
-61.89
-73.99
-90.86
-111.21
-133.6
-157.02
-181.32
-207.22
-236.27
-270.37
-311.42
-360.38
-415.97
-473.48
-524.77
-559.93
-570.28
-551.59
-505.78
-440.28
-365.17
-289.53
-218.63
-152.95
-89.34
-23.48
47.27
121.9
195.32
259.53
306.17
329.07
326.19
300.04
256.83
205.06
154.3
114.07
92.38
93.85
117.73
157.17
200.6
235.39
252.26
248.25
227.03
196.28
164.15
136.55
116.28
103.75
98.39
99.52
106.34
117.63
131.55
145.89
158.77
169.05
176.6
181.91
185.34
186.89
186.04
181.97
174
162.01
146.76
129.54
111.97
95.3
80.33
67.25
55.78
45.37
35.52
25.99
16.57
7.23
-2.47
-12.77
-23.49
-34.07
-43.7
-51.66
-57.3
-60.85
-62.93
-65.67
-70.49
-77.56
-85.88
-93.73
-99.91
-103.63
-106.64
-111.8
-124.93
-150
-187.89
-236.56
-291.67
-348.75
-402.98
-453.66
-502.01
-555.07
-618.89
-696.75
-787.86
-886.32
-982.33
-1061.76
-1115.34
-1138.48
-1138.62
-1126.94
-1114.7
-1109.66
-1113.5
-1123.44
-1131.67
-1136.37
-1096.72
-990.12
-812.12
-579.63
-324.06
-76.42
118.98
263.56
367.09
438.83
479.55
490.23
478.69
452.65
421.2
392.17
373.77
366.04
366.25
366.99
363.76
356.12
346.78
340.72
342.1
355.16
377.73
405.75
432.78
455.09
472.13
485.33
497.17
509.08
522.1
533.48
540.13
539.41
531.93
521.84
515.33
519.07
536.93
568.56
606.78
640.14
656.04
645.11
604.34
538.11
457.69
378.24
314.97
277.93
269.19
282.45
305.29
323.97
328.34
315.14
287.82
253.64
219.57
189.63
164.63
143.92
127.39
116.02
110.99
112.08
116.96
122.02
123.84
121.27
115.7
110.46
108.99
112.97
121.4
130.81
136.7
135.47
125.76
108.88
88.14
67.17
48.31
31.81
15.93
-1.9
-23.78
-50.18
-79.92
-110.66
-140.14
-167.23
-192.25
-216.95
-243.93
-276.19
-316.38
-365.91
-423.77
-485.65
-544.19
-590.6
-617.55
-621.69
-604.96
-573.44
-534.83
-495.46
-458.69
-425.08
-393.92
-364.86
-338.56
-316.2
-298.38
-284.47
-272.8
-261.48
-249.43
-236.78
-224.79
-215.07
-208.75
-205.95
-205.72
-206.57
-207.14
-206.88
-206.26
-206.59
-209.29
-215.19
-223.98
-234.12
-243.27
-249.01
-249.61
-244.45
-234.02
-219.46
-201.77
-181.23
-157.09
-127.89
-92.22
-49.52
-0.59
52.38
106.46
158.8
207.53
252.1
293.2
332.45
372.15
414.91
462.94
516.94
574.73
630.78
677.14
705.79
711.73
694.95
660.46
616.18
569.76
526.2
487.15
452.06
419.87
390.3
363.85
340.92
321.06
302.77
284.24
264.13
242.29
219.65
197.77
177.91
160.47
144.87
129.72
113.61
95.79
76.41
56.44
37.29
20.01
5.01
-7.86
-19.22
-29.61
-39.09
-47.13
-52.72
-54.57
-51.72
-43.74
-30.66
-13.41
6.77
28.63
51.04
73.07
94.26
114.03
131.87
147.58
159.91
167.75
170.33
167.34
158.93
146.48
130.69
112.4
92.86
71.04
45.83
16.61
-16.68
-53.51
-91.3
-129.34
-167.08
-203.72
-242.02
-284.72
-333.23
-387.31
-445.56
-503.85
-562.47
-623.53
-688.54
-761.4
-842.05
-924.53
-999
-1055.79
-1086.14
-1092.18
-1082.23
-1034.41
-937.24
-790.52
-607.11
-409.27
-242.42
-114.03
-20.88
43.24
84.78
109.97
120.27
117.03
102.74
80.96
59.27
40.59
26.22
17.31
11.2
4.76
-3.61
-13.91
-24.92
-32.21
-35.02
-33.83
-29.17
-23.68
-20.08
-19.66
-22.28
-26.75
-29.75
-30.25
-28.15
-23.52
-17.59
-11.81
-6.97
-3.14
0.03
4.01
9.12
15.25
22.28
29.65
36.76
43.29
49.25
54.79
60.42
66.24
72.12
77.92
83.54
88.85
93.83
98.53
102.99
107.33
111.62
115.93
120.27
124.62
128.9
132.98
136.7
139.88
142.37
144
144.73
144.61
143.69
142.13
140.12
137.81
135.36
132.9
130.59
128.58
127.08
126.3
126.4
127.44
129.28
131.61
133.95
135.76
136.55
136.01
134.01
130.62
126.04
120.52
114.34
107.82
101.45
95.82
91.75
90.09
91.56
96.58
105.05
116.42
129.8
144.26
159
173.64
188.17
202.88
218.33
235.09
253.59
273.8
295.18
316.68
337.07
355.4
371.29
384.96
396.75
406.62
413.67
416.09
411.69
398.63
376.25
345.39
308.29
267.92
227.23
188.49
152.86
120.39
90.13
60.57
30.4
-0.84
-32.18
-61.27
-85.12
-101.27
-108.99
-109.8
-106.93
-104.19
-104.44
-108.77
-116.42
-125.62
-134.8
-143.36
-151.9
-161.51
-172.96
-185.83
-198.53
-209.1
-215.92
-218.11
-214.91
-205.22
-187.48
-160.73
-126.08
-87.63
-51.65
-24.22
-8.63
-4.04
-6.28
-10.44
-13.39
-14.83
-16.33
-19.49
-24.32
-29.26
-32.28
-32.34
-30.09
-27.38
-26.38
-28.38
-33.43
-40.33
-47.38
-53.08
-56.55
-57.77
-57.36
-56.33
-55.59
-55.61
-56.32
-57.12
-57.06
-55.28
-51.31
-45.31
-37.95
-30.2
-22.96
-16.82
-12.13
-9.05
-7.73
-8.25
-10.44
-13.63
-16.6
-17.92
-16.53
-12.16
-5.62
1.65
8.12
12.89
15.95
18.07
20.39
23.88
28.97
35.41
42.41
48.93
53.99
56.96
57.72
56.69
54.73
52.79
51.53
51.06
50.73
49.62
46.93
42.55
37.16
32.04
28.5
27.27
28.24
30.48
32.57
33.11
30.95
25.55
17.05
6.34
-4.96
-14.86
-21.53
-23.86
-21.89
-16.71
-10.16
-4.17
-0.26
0.72
-1.26
-5.57
-11
-15.95
-18.8
-18.26
-13.96
-6.7
1.47
7.94
10.27
7.23
-0.65
-11.29
-21.77
-29.52
-33.14
-32.88
-30.15
-26.81
-24.31
-23.26
-23.66
-25.02
-26.94
-29.03
-30.93
-32.18
-32.34
-31.25
-29.24
-27.26
-26.59
-28.35
-32.96
-39.74
-47.14
-53.17
-56.17
-55.41
-51.43
-45.74
-40.31
-36.86
-36.24
-38.56
-43.48
-50.59
-59.48
-69.44
-79.04
-86.05
-87.97
-82.91
-70.67
-52.99
-33.17
-14.84
-0.71
8.19
12.43
13.41
12.45
10.2
6.52
0.9
-7.04
-16.95
-27.78
-37.92
-45.68
-49.71
-49.21
-43.95
-34.37
-21.51
-6.91
7.55
20.17
29.82
36.23
39.79
41.22
41
39.28
35.99
31.15
25.28
19.3
14.34
11.32
10.57
11.86
14.45
17.5
20.22
22.16
23.18
23.49
23.51
23.71
24.44
25.88
28.07
30.88
34.2
37.8
41.43
44.79
47.47
49.15
49.44
48.04
44.65
39.16
31.61
22.28
11.65
0.44
-10.46
-20.07
-27.46
-32.07
-33.95
-33.86
-33.17
-33.19
-34.75
-37.74
-41.18
-43.71
-44.13
-41.94
-37.32
-31.01
-23.94
-17.09
-11.36
-7.58
-6.35
-7.82
-11.44
-16.02
-20.17
-22.73
-23.33
-22.42
-20.97
-20.03
-20.28
-22.01
-25.2
-29.69
-35.13
-40.89
-45.9
-48.71
-48.02
-43.28
-35.28
-25.95
-17.74
-12.5
-10.48
-10.21
-8.97
-4.09
5.95
20.78
38.37
55.63
69.46
77.6
78.96
73.73
63.16
49.21
34.19
20.32
9.28
1.95
-1.64
-2.23
-0.97
0.85
2.16
2.38
1.48
-0.05
-1.42
-1.92
-1.19
0.6
2.86
4.81
5.88
5.86
5.01
3.84
2.78
1.94
1.03
-0.47
-2.95
-6.33
-10.03
-13.1
-14.62
-14.07
-11.6
-7.94
-4.17
-1.45
-0.63
-2.1
-5.57
-10.09
-14.28
-16.8
-16.89
-14.91
-12.4
-11.52
-14.22
-21.11
-31
-41.17
-48.34
-50.04
-45.71
-37.04
-27.12
-19.29
-15.71
-16.77
-21.31
-27.43
-33.5
-38.68
-42.85
-46.16
-48.77
-50.61
-51.66
-52.2
-52.87
-54.39
-57.16
-60.98
-64.96
-67.89
-68.72
-67.12
-63.77
-60.24
-58.6
-60.58
-66.89
-76.8
-88.18
-98.08
-103.6
-102.8
-95.28
-82.34
-66.54
-50.71
-36.82
-25.06
-13.71
0.33
20.37
48.64
85.18
127.39
170.42
208.21
235.08
247.48
245.2
231.61
212.65
194.89
183.4
180.29
184.48
192.77
201.47
207.65
209.82
207.72
201.78
192.71
181.05
167.05
150.47
130.81
107.65
81.41
53.9
28.43
9.02
-1.11
-1.05
6.98
18.17
26.55
27.16
17.35
-2.69
-30.16
-60.12
-86.11
-101.03
-98.74
-76.33
-35.98
14.6
64.11
101.44
119.51
117.55
100.37
75.27
48.28
21.82
-5.24
-35.35
-69.67
-106.44
-141.26
-168.99
-185.82
-190.77
-185.67
-174.09
-159.86
-145.68
-132.97
-121.87
-111.85
-102.21
-92.42
-82.51
-72.96
-64.84
-59.39
-57.84
-61.01
-69.14
-81.58
-96.27
-109.79
-117.55
-115.45
-101.93
-79.47
-54.47
-34.7
-25.71
-28.37
-38.79
-51.04
-60.53
-66.04
-69.37
-73
-77.84
-82.68
-85.39
-84.85
-82.02
-79.13
-77.87
-77.68
-75.47
-66.95
-48.72
-20.14
16.06
54.61
89.24
114.67
128.42
131.12
126.23
118.44
112.12
110.09
113.12
120.01
128.24
134.51
135.6
129.16
114.54
93.28
68.87
45.64
27.23
15.24
8.84
5.33
1.6
-4.41
-12.86
-22.38
-30.84
-36.51
-38.76
-37.97
-35.54
-33.38
-33.86
-39.27
-50.79
-67.28
-84.75
-97.33
-99.51
-88.89
-67.38
-40.66
-15.36
3.72
15.26
20.67
22.09
20.4
14.83
4.27
-10.82
-27.45
-40.87
-46.59
-42.63
-30.46
-14.23
0.99
11.41
15.71
14.97
11.87
9.05
8.19
9.51
12.01
14.17
14.72
13
9
3.38
-2.96
-8.99
-13.98
-17.61
-19.98
-21.45
-22.52
-23.67
-25.15
-27.21
-29.83
-33.11
-37.19
-42.21
-48.29
-55.43
-63.68
-72.5
-80.95
-86.91
-88.13
-82.83
-70.53
-52.62
-32.13
-13.01
2.05
12.34
20.32
29.51
42.96
62.02
85.57
110.54
132.44
148.8
159.38
167.87
178.96
196.83
224.08
260.93
305.75
354.76
405.37
454.68
500.88
540.45
569.05
583.44
582.87
569.85
548.35
525.41
492.47
443.27
373.26
283.21
180.62
76.5
-9.83
-77.13
-129.47
-171.64
-204.74
-228.51
-243.8
-250.28
-248.75
-242.76
-238.44
-239.95
-249.9
-267.72
-291.85
-320.3
-351.12
-383.33
-418.4
-459.48
-507.61
-561.79
-617.97
-670.87
-714.58
-743.99
-745.93
-712.7
-644.64
-549.83
-442.29
-336.6
-244.18
-171.19
-119.43
-86.72
-69.06
-60.04
-51.46
-36.53
-12.08
20.35
56
88.57
113.96
130.04
137.35
137.93
134.02
127.81
116.9
102.19
86.05
73.28
67.26
68.86
75.76
83.65
88.37
87.9
83.81
79.44
81.54
95.31
122.38
159.95
202.21
243.09
278.75
308.94
335.39
364.4
401.88
451.42
512.81
582.22
653.27
718.28
769.79
778.7
725.86
609.03
447.36
273.09
115.63
-9.45
-101.06
-166.01
-213.1
-244.74
-260.14
-258.69
-243.23
-220.44
-198.27
-182.97
-177.02
-180.15
-187.66
-194.54
-197.48
-196.55
-194.82
-196.39
-204.88
-220.22
-242.56
-269.49
-296.95
-319.03
-328.83
-320.07
-288.86
-239.55
-176.24
-107.65
-43.97
5
33.12
39.3
27.38
5.09
-19.42
-39.04
-50.53
-53.95
-52.89
-52.17
-56.59
-69.28
-90.68
-118.4
-147.3
-171.24
-181.24
-172.57
-146.86
-112.03
-80.2
-55.16
-36.89
-23.16
-11.14
1.68
17.19
37.98
66.1
102.22
144.96
189.77
231.16
264.59
287.58
293.18
278.47
244.79
197.51
143.8
88.77
35.33
-14.69
-59.37
-96.1
-120.36
-128.79
-119.41
-93.26
-55.89
-16.46
14.5
25.92
12.46
-20.24
-56.81
-78.08
-69.78
-29.12
34.84
105.74
166.78
206.47
221.02
212.1
184.2
142.57
92.84
41.39
-5.01
-40.7
-62.21
-69.21
-64.56
-52.98
-39.53
-28.46
-22.2
-21.21
-24.23
-28.64
-31.39
-30.24
-24.51
-15.43
-5.51
2.51
6.72
6.8
4.15
1.31
0.96
4.77
12.68
22.85
32.25
37.79
37.55
31.39
20.93
8.91
-2.11
-10.8
-17.71
-24.85
-34.85
-49.13
-68.59
-92.31
-116.99
-137.32
-146.97
-140.46
-115.2
-73.39
-23.42
24.75
60.17
75.11
67.97
43.92
12.83
-14.3
-29.38
-29.69
-17.97
-0.61
15.71
26.65
31.21
31.07
28.87
26.33
23.83
21.02
17.77
15.04
14.53
17.99
25.74
36.34
47.13
55.58
60.59
62.75
64.12
66.98
72.85
81.8
92.56
103.28
112.55
119.95
126.29
133.14
141.8
152.9
166.03
179.8
192.34
201.96
207.32
207.42
203.09
194.74
182.71
167.4
149.28
129.13
108.11
87.48
68.14
50.44
33.68
16.61
-2.31
-24.33
-50.05
-79.41
-111.89
-147.01
-184.56
-224.81
-267.88
-313.44
-360.14
-405.59
-447.15
-482.6
-511.14
-533.66
-552.65
-571.34
-593.18
-621.49
-658.64
-704.92
-757.42
-809.28
-850.61
-871.21
-863.86
-826.96
-765.12
-687.11
-602.5
-518.56
-438.92
-364.32
-294.41
-229.23
-169.51
-115.99
-68.56
-25.97
13.64
51.62
88.15
122.31
152.35
176.87
195.41
208.68
218.25
225.87
232.74
239.21
244.8
248.68
250.21
249.4
246.92
243.95
241.67
240.92
241.95
244.51
248.09
252.21
256.58
261.06
265.5
269.52
272.43
273.31
271.06
264.75
253.74
237.84
217.22
192.41
164.23
133.79
102.58
72.32
44.95
22.18
5.24
-5.52
-10.63
-11.38
-9.33
-5.75
-1.3
4.19
11.4
21.07
33.59
48.76
66.02
84.65
104.31
125.16
147.98
173.96
204.66
241.84
286.89
339.87
398.53
457.8
510.42
548.82
567.58
565.35
545.44
514.57
480.45
449.3
424.18
404.79
388.38
371.28
350.06
322.52
288.08
248.03
205.34
164.15
128.78
102.67
87.28
81.49
81.75
82.96
79.82
68.32
47.01
17.6
-15.38
-45.98
-68.8
-80.8
-82.17
-75.68
-65.03
-53.02
-40.42
-26.71
-11.45
4.17
17.11
23.3
19.47
4.87
-18.36
-45.78
-72.27
-93.48
-106.86
-111.87
-109.54
-101.57
-89.49
-74.39
-56.99
-38.37
-20.6
-6.81
-0.75
-5.5
-22.4
-50.25
-85.44
-122.77
-156.83
-183.34
-199.97
-206.69
-204.98
-196.94
-184.2
-167.58
-147.27
-123.79
-98.67
-74.59
-54.76
-41.52
-35.39
-34.79
-36.88
-38.79
-38.8
-36.61
-32.76
-27.83
-21.6
-13.2
-1.71
12.93
29.59
46.3
60.87
71.57
77.11
76.18
67.05
47.92
18.07
-20.75
-63.82
-104.43
-136
-154.62
-160.22
-156.15
-147.13
-136.99
-127.33
-117.5
-106.16
-92.69
-78.14
-64.85
-55.18
-50.22
-49.08
-49.39
-48.42
-44.44
-37.27
-28.42
-19.96
-13.71
-10.47
-9.83
-10.74
-11.98
-12.71
-12.56
-11.67
-10.43
-9.24
-8.34
-7.69
-6.96
-5.74
-3.79
-1.21
1.6
4.03
5.72
6.54
6.64
6.26
5.39
3.88
1.41
-2.2
-6.92
-12.23
-17.44
-21.6
-23.98
-24.12
-22.04
-18.21
-13.23
-7.91
-2.83
1.41
4.38
5.77
5.51
4.03
2.11
0.61
0.06
0.47
1.25
1.66
1.11
-0.6
-3.33
-6.88
-11.05
-15.53
-19.65
-22.44
-23
-20.99
-17.19
-13.04
-10.17
-9.39
-10.37
-11.72
-11.87
-9.68
-4.86
1.95
9.55
16.45
21.3
23.05
21.21
16.14
9.03
1.73
-3.96
-6.78
-6.51
-3.85
-0.23
2.68
3.53
1.55
-3.17
-9.88
-17.29
-24.16
-29.53
-32.95
-34.52
-34.43
-32.9
-30
-25.89
-20.94
-15.76
-11.04
-7.24
-4.52
-2.65
-1.3
-0.11
1.12
2.58
4.51
7.04
10.33
14.19
18.2
21.62
23.82
24.37
23.25
20.81
17.65
14.45
11.68
9.69
8.34
7.39
6.52
5.53
4.44
3.25
1.97
0.36
-1.75
-4.28
-6.84
-8.67
-9.13
-8.08
-6.13
-4.37
-3.89
-5.05
-7.37
-9.74
-11.1
-11.07
-9.9
-8.36
-7.1
-6.42
-6.16
-5.99
-5.6
-4.84
-3.8
-2.55
-1.34
-0.43
-0.18
-1.03
-3.33
-7.09
-11.78
-16.55
-20.24
-21.88
-21.01
-17.94
-13.67
-9.47
-6.39
-4.78
-4.33
-4.21
-3.58
-1.86
1.07
4.83
8.71
11.89
13.78
14.21
13.52
12.37
11.26
10.28
8.92
6.52
2.74
-1.97
-6.45
-9.37
-9.98
-8.6
-6.3
-4.44
-3.9
-4.95
-7.36
-10.72
-14.67
-18.77
-22.56
-25.37
-26.88
-27.22
-27.2
-27.73
-29.33
-31.55
-33.14
-32.71
-29.52
-24.04
-17.8
-12.84
-10.89
-12.76
-18.11
-25.67
-33.49
-39.34
-41.39
-38.83
-32.31
-24
-16.85
-13.41
-14.89
-20.6
-28.46
-36.01
-41.26
-43.43
-43.19
-42.05
-41.77
-43.61
-47.72
-52.64
-55.02
-50.28
-34.78
-8.34
24.55
55.78
76.65
81.34
68.91
42.86
9.04
-27.96
-66.48
-106.93
-149.13
-190.2
-224.45
-245.52
-249.25
-234.22
-203.53
-163.51
-121.07
-80.92
-44.81
-12.6
16.04
40.48
62.3
82.82
102.84
122.99
144.67
169.92
199.82
233.46
267.8
302.91
337.64
368.46
390.42
400.2
397.78
385.43
366.07
342.36
322.44
313.13
317.09
332.6
356.18
384.53
414.35
442.01
428.57
353.92
228.06
84.72
-44.59
-145.86
-219.19
-270.54
-306.41
-331.74
-344.38
-342.54
-328.69
-309.12
-290.43
-276.19
-266.73
-260.63
-255.99
-247.41
-230.98
-207.2
-179.27
-150.81
-123.2
-95.68
-66.77
-35.46
0.1
40.66
81.75
119.29
150.13
173.38
190.14
202.52
216.25
232.78
252.87
274.75
294.08
304.69
301.27
281.67
248.15
207.1
166.25
132.96
111
100.13
96.95
97.29
97.74
95.71
93.23
89.99
85.39
78.46
68.77
56.69
43.56
31.23
21.45
15.11
11.26
8.65
5.95
2.37
-2.19
-7.12
-11.48
-14.49
-15.91
-16.78
-18.34
-21.79
-27.77
-36.26
-46.74
-58.13
-69.1
-78.49
-85.97
-92.14
-98
-104.46
-111.99
-120.67
-129.95
-138.83
-146.27
-151.78
-155.83
-159.24
-162.67
-166.32
-170.39
-174.44
-177.55
-178.79
-177.84
-176.18
-175.89
-178.99
-187.23
-203.95
-231.16
-267.94
-309.79
-349.18
-380.31
-398.97
-403.61
-396.15
-384.92
-377.03
-374.45
-373.42
-366.32
-350.87
-327.33
-296.96
-261.85
-229.87
-205.99
-189.71
-176.04
-158.26
-139.06
-123
-113.06
-111.05
-125.12
-159.05
-208.97
-263.35
-307.84
-340.44
-363.21
-378.46
-334.67
-207.54
-13.25
199.97
358.89
466.08
532.62
565.86
578.01
572.77
544.26
489.41
411.12
332.74
277.8
252.02
250.08
263.26
283.35
299.63
306.69
295.36
276.02
260.41
250.11
243.31
238.01
230.99
214.3
189.51
157.06
121.88
88.28
55.11
19.87
-18.75
-61.59
-110.52
-166.46
-229.94
-297.9
-366.93
-433.91
-493.61
-537.46
-556.57
-545.76
-505.37
-442.31
-365.48
-284.71
-207.81
-139.22
-79.14
-26.12
20.94
61.82
95.03
120.25
137.49
152.22
164.96
173.5
175.03
168.24
153.93
134.09
111.91
90.43
72.14
57.67
46.89
38.9
32.53
26.47
18.97
10.39
1.4
-7.24
-15.58
-23.66
-31.62
-39.47
-47.22
-54.79
-61.71
-67.48
-71.52
-73.69
-73.45
-71.85
-69.28
-65.97
-62
-57.18
-51.5
-45.04
-38.28
-31.68
-25.64
-20.11
-14.8
-9.32
-3.3
3.16
9.42
14.32
16.56
15.24
10.47
3.22
-4.87
-12.12
-17.63
-21.65
-25.57
-31.3
-40.26
-52.36
-65.88
-77.85
-85.19
-85.99
-80.31
-69.98
-57.76
-45.89
-34.8
-22.78
-6.47
18.23
55.06
106.15
170.76
244.39
318.53
381.89
423.12
434.59
415.53
373.16
320.69
272.79
240.49
227.59
230.56
241.26
251.26
254.97
250.78
239.91
224.51
206.11
185.4
162.96
140.12
119.41
103.74
95.31
94.42
99.22
106.25
111.81
113.49
111.08
106.49
102.84
102.87
107.57
115.64
124.08
129.65
130.19
125.42
116.92
107.38
99.51
95.16
94.63
96.69
99.1
99.91
98.66
97.2
99.09
107.95
125.25
148.89
173.53
192.65
201.54
199.46
189.69
177.41
166.63
158.04
148.79
134.45
111.85
81.14
45.91
11.55
-17.34
-38.91
-54.5
-67.77
-83.05
-104.07
-132.9
-169.2
-209.6
-247.56
-274.02
-279.37
-256.32
-202.85
-123.85
-30.62
61.96
139.62
192.54
217.46
217.32
199.1
170.96
139.8
110.27
84.76
64.08
48.1
35.98
26.18
16.46
4.48
-11.39
-31.33
-53.94
-76.88
-97.75
-115.3
-130.08
-144.49
-161.88
-185
-214.15
-246.15
-274.61
-291.7
-291.06
-270.34
-231.91
-181.79
-127.04
-73.4
-24.13
19.31
55.86
83.73
100.61
104.88
97.01
79.86
57.88
35.44
15.35
-1.57
-16.25
-30.31
-45.13
-61.46
-79.38
-98.47
-118.05
-137.65
-157.07
-176.65
-197.26
-219.91
-245.57
-275.08
-309.43
-349.82
-396.95
-449.78
-504.33
-553.65
-589.44
-604.89
-597.28
-569.11
-527.06
-479.27
-432.46
-390.34
-353.41
-320.2
-288.7
-257.14
-224.24
-188.87
-149.6
-104.6
-52.48
6.18
67.55
124.15
167.18
190.13
192.53
181.1
167.52
163.65
176.56
206.37
247.92
295.05
344.49
396.64
453.07
512.67
569.41
613.49
635.49
630.81
601.88
556.82
505.85
457.08
414.08
376.29
341.2
306.77
272.76
240.23
210.29
183.01
157.37
132.04
106.37
80.73
56.13
33.4
12.42
-7.85
-28.77
-51.11
-74.71
-98.46
-121.03
-141.77
-161.02
-180.21
-201.41
-227.21
-259.86
-300.5
-347.62
-395.91
-436.24
-457.38
-449.72
-409.71
-342.93
-263.39
-188.71
-133.16
-102.41
-92.52
-93.62
-95.59
-92.21
-81.62
-63.63
-37.19
-0.16
48.09
103.28
155.3
190.9
199.95
180.82
142.09
98.9
66.02
51.74
54.98
67.55
78.63
80.08
69.3
48.91
23.94
-1.15
-24.57
-47.16
-70.97
-97.85
-128.71
-164.08
-204.81
-251.94
-305.54
-363.05
-418.88
-465.13
-494.21
-501.75
-488.31
-459.11
-421.81
-383.51
-348.57
-318.13
-291.22
-266.48
-243.41
-222.52
-204.5
-189.14
-174.95
-159.38
-139.98
-115.4
-86.25
-54.66
-23.37
5.52
31.68
56.53
82.66
112.84
149.18
192.82
243.52
299.12
354.76
402.73
433.87
440.64
420.84
379.5
327.68
277.84
238.65
211.56
191.4
170.04
140.93
101.66
53.88
1.16
-53.08
-106.07
-154.94
-195.69
-223.53
-234.53
-227.49
-204.83
-171.43
-132.45
-91.64
-51.08
-12.36
22.05
48.43
62.96
63.64
51.6
31.03
7.7
-13.04
-27.44
-33.22
-28.91
-13.35
13.39
48.97
88.06
123.34
148.08
158.9
157.24
148.31
138.29
131.16
127.36
124.45
119.4
110.81
99.9
89.93
84.51
85.91
93.84
105.39
115.63
118.94
110.65
88.58
53.68
10.02
-36.36
-79.08
-113.01
-135.37
-145.69
-145.18
-135.89
-120.12
-100.45
-80.15
-63.3
-54.27
-56.27
-69.4
-89.4
-108.01
-115.53
-104.69
-73.87
-28.12
23.14
70.03
105.82
127.94
136.42
131.74
114.08
84.58
47.15
8.75
-23.32
-45.58
-61.45
-80.18
-111.88
-161.09
-222.99
-284.84
-331.91
-354.5
-351.73
-330.7
-301.68
-272.86
-247.65
-225.42
-204.31
-183.85
-165.69
-152.38
-145.37
-143.67
-144.02
-142.45
-136.17
-124.65
-109.61
-93.95
-80.06
-68.69
-58.56
-47.05
-31.46
-10.22
16.41
46.55
77.48
106.85
133.45
157.78
181.66
207.59
237.52
271.66
307.88
342.05
369.59
387.28
394.73
394.25
389.33
382.5
373.92
361.61
343.16
317.87
287.78
257.12
230.52
211.36
201.22
200.56
209.56
228.33
255.99
289.14
321.43
344.79
352.28
341.23
314.76
280.93
249.4
227.56
217.97
218.3
223.44
228.13
229.08
225.09
216.1
202.1
182.59
156.79
124.47
86.58
45.58
5.27
-30.22
-57.91
-77.46
-91.8
-105.79
-123.41
-144.83
-165.41
-177.53
-175.22
-158.45
-134.57
-115.37
-111.16
-125.65
-154.35
-187.73
-216.54
-236.14
-247.12
-252.25
-252.96
-247.39
-232.28
-206.8
-175.85
-149.85
-140.81
-156.21
-194.41
-244.43
-290.11
-317.02
-317.89
-294.39
-254.49
-207.39
-158.66
-108.7
-54.69
5.13
67.67
124.01
162.2
172.34
151.85
107.82
55
10.57
-12.27
-8.86
15.96
50.84
82.53
100.39
98.93
78.35
43.57
2.56
-36.05
-65.3
-81.9
-87.16
-85.64
-82.6
-80.93
-79.73
-75.01
-62.39
-39.95
-9.41
24.94
59.06
91.57
124.17
159.77
199.36
239.74
273.75
292.94
291.62
270.28
236.25
200.9
174.82
162.96
162.58
164.91
159.64
139.91
105.11
60.29
12.79
-31.76
-72.27
-112.4
-158.1
-213.82
-279.3
-348.35
-410.53
-454.9
-473.96
-466.33
-436.4
-391.93
-340.8
-288.9
-239.87
-196.25
-160.53
-134.94
-120.32
-114.69
-113.12
-109.25
-97.4
-74.22
-38.98
6.86
59.79
113.91
160.86
191.02
196.4
174.03
127.82
67.39
4.3
-52.02
-96.66
-128.75
-149.16
-158.21
-155.29
-140.21
-114.77
-83.28
-51.01
-22.16
1.58
20.79
36.99
51.47
64.94
78.15
92.51
109.88
131.34
155.99
180.46
199.78
209.37
206.93
193.45
172.64
149.41
128.04
111.04
99.01
91.47
88.11
89.81
98.73
117.16
145.71
181.55
218
246.02
257.12
246.91
217.15
175.56
133.19
100.54
84.1
84.77
98.48
118.43
137.57
150.46
153.92
146.93
130.09
105.19
74.97
42.88
12.65
-12.3
-29.65
-38.68
-40.37
-36.79
-30.03
-21.24
-10.32
3.3
19.43
36.14
49.88
56.98
55.35
45.79
31.75
17.69
7.19
1.7
0.67
2.78
7.43
15.34
28.16
47.13
71.81
99.38
124.93
142.72
147.86
138.18
115.38
84.94
54.74
32.68
24.27
31
50.21
76.34
102.93
124.41
137.08
139.08
129.87
109.72
79.57
41.23
-2.48
-47.9
-91.37
-130.25
-163.76
-193.49
-222.89
-256.15
-296.62
-345.21
-399.58
-454.28
-502.03
-535.61
-550.01
-543.76
-519.03
-480.63
-434.13
-384.28
-333.92
-284.14
-234.99
-186.39
-138.45
-91.46
-45.52
-0.47
43.77
86.84
127.8
165.29
198.02
225.38
247.4
264.41
276.72
284.68
288.57
289.03
286.83
282.54
276.29
267.94
257.51
245.73
234.19
225.14
220.99
223.97
235.74
256.88
286.1
319.7
351.73
375.41
385.28
379.24
359.2
329.95
296.92
263.91
232.43
202.28
173.07
145.33
120.57
100.13
84.05
70.65
56.93
40.12
19
-5.52
-30.91
-54.32
-74.17
-90.9
-106.83
-125.02
-147.84
-176.13
-209.05
-244.66
-280.38
-313.35
-340.49
-358.89
-366.46
-362.76
-349.43
-329.44
-305.77
-280.07
-252.5
-222.81
-192
-163.41
-142.22
-133.48
-139.48
-158.11
-182.98
-205.45
-217.58
-214.92
-198.15
-172.45
-145.71
-125.2
-114.99
-114.59
-119.78
-125.19
-127.35
-126.38
-125.52
-128.87
-138.36
-152.28
-165.63
-172.22
-167.49
-150.04
-121.59
-85.14
-43.31
2.45
51.3
101.83
151.45
196.89
235.66
266.91
291.23
309.46
321.72
327.33
325.47
316.5
301.49
281.58
256.59
225.21
186.31
140.97
93.32
49.27
13.43
-13.88
-37.22
-64.28
-101.79
-151.84
-210.13
-266.88
-309.79
-327.43
-312.79
-265.82
-194.36
-112.99
-39.96
7.38
17.62
-11.2
-70.67
-144.39
-212.72
-258.28
-270.6
-248.62
-200.71
-141.97
-89.64
-57.42
-51.03
-66.58
-92.46
-114.37
-121.03
-107.93
-77.4
-35.85
10.3
57.27
104.41
153
204.42
259.34
317.39
377.03
435.06
486.42
524.78
544.4
542.37
519.91
482.11
435.92
387.7
341.57
299.29
261.21
227.42
198.26
174.06
154.47
138.13
122.84
106.25
86.55
63.1
36.66
9.04
-17.66
-41.69
-62.52
-81.11
-99.79
-121.69
-149.92
-186.66
-232.16
-283.83
-335.96
-380.41
-408.21
-411.91
-387.74
-337.22
-267.68
-191.1
-121.29
-70.01
-43.16
-38.78
-48.11
-59.55
-63.81
-57.98
-46.06
-36.25
-36.39
-50.33
-77.39
-114.67
-160.29
-214.64
-278.78
-351.02
-424.54
-488.13
-530.08
-543.34
-528.84
-495.06
-454.14
-416.58
-387.38
-365.49
-346.26
-325.17
-300.56
-274.03
-248.81
-227.23
-209.16
-192.04
-172.44
-147.89
-118.19
-85.58
-53.48
-24.73
-0.05
22.12
44.84
70.88
101.19
134.36
167.68
198.71
226.48
251.43
274.38
295.35
313.5
328.26
340.48
352.46
366.34
382.16
396.98
406.42
407.71
402.22
395.35
393.6
400.49
414.12
427.9
434
427.3
407.34
377.16
340.61
299.88
254.57
202.9
143.89
79.13
13.42
-46.25
-92.91
-122.16
-134.24
-134.3
-130.82
-132.23
-143.16
-162.16
-181.94
-192.35
-184.26
-153.21
-100.96
-34.86
34.53
96.38
142.01
166.4
168.27
149.41
113.34
64.28
6.62
-54.99
-115.24
-168.09
-207.32
-227.75
-226.42
-203.48
-162.02
-107.4
-46.1
15.54
72.19
119.84
155.67
178.1
186.51
181.36
164.07
136.82
102.92
67.03
34.71
11.74
2.83
9.67
29.42
54.75
75.81
84.54
78.54
61.22
39.69
21.05
8.64
0.74
-7.27
-20.28
-39.85
-63.24
-87.42
-111.55
-136.53
-163.52
-191.43
-216.02
-232.94
-239.41
-236.11
-230.53
-233.52
-252.57
-287.32
-329.09
-364.6
-383.74
-381.98
-359.8
-324.11
-283.4
-241.98
-198.49
-148.37
-78.89
8.86
89.29
144.83
168.05
158.7
127.53
93.24
75.43
86.78
127.02
186.1
251.21
308.94
349.48
368.63
365.73
341.29
296.7
235.1
165.24
102.57
61.95
51.9
70.76
106.41
140.57
156.6
145.49
109.5
60.22
10.22
-32.63
-66.62
-93.85
-115.91
-131.06
-135.09
-124.12
-97.66
-61.09
-24.16
3.06
13.69
5.81
-17.8
-51.68
-89.37
-124.44
-151.35
-165.8
-164.66
-146.7
-113.31
-69.14
-22.23
17.33
39.99
40.4
20.28
-11.05
-39.42
-50.66
-35.64
6.96
70.72
144.35
215.4
273.34
311.45
326.99
320.77
296.1
257.7
210.1
156.46
98.51
37.36
-24.13
-80.15
-122.13
-141.65
-134.31
-102.9
-57.29
-10.77
25.5
47.11
57.06
62.59
69.82
79.9
88.77
90.36
80.54
59.15
29.15
-5.74
-42.9
-80.64
-116.81
-147.22
-165.89
-166.74
-145.81
-102.49
-40.12
34.47
111.93
181.25
232.39
258.82
259.97
241.78
214.47
188.13
168.51
154.97
141.71
121.65
90.41
49.23
4.51
-35.2
-63.31
-78.41
-84.97
-91.28
-105.78
-133.56
-174.89
-225.91
-280.27
-330.8
-370.29
-392.13
-391.9
-369.67
-331.95
-290.89
-260.25
-249.48
-259.31
-281.22
-301.91
-309.46
-297.95
-268.3
-225.4
-174.25
-117.83
-57.77
3.47
61.2
108.98
141.03
155.21
154.69
147.27
142.83
149.11
168.54
196.81
224.15
238.81
231.32
197.82
141.56
72.01
1.89
-56.19
-92.83
-103.63
-89.21
-53.88
-3.39
56.72
121.85
187.4
247.47
294.28
319.69
318.38
290.93
244.52
190.49
139.59
97.7
64.64
36.63
10.39
-13.61
-31.43
-39
-36.23
-29.1
-28.08
-43.32
-79.54
-133.07
-192.32
-241.93
-268.09
-263.04
-227.91
-172.7
-113.08
-64.9
-38.44
-34.75
-46.39
-62.68
-76.09
-86.01
-97.29
-115.34
-141.12
-169.75
-193.52
-206.68
-208.3
-201.1
-187.79
-168.46
-141.58
-107.99
-74.33
-52.21
-53.15
-81.9
-132.92
-192.32
-243.85
-275.77
-284.38
-273.09
-248.73
-217.45
-182.84
-146.11
-108.01
-70.26
-35.77
-7.33
13.95
29.37
42.64
58.73
82.34
116.6
161.68
214.02
266.48
309.47
333.1
329.73
296.31
235.75
156.76
72.21
-3.76
-59.09
-86.61
-85.56
-61.09
-22.01
22.3
64.86
102.52
135.83
167.54
201.12
239.62
285.07
337.62
394.4
448.8
490.99
510.79
502.18
466.93
415.5
363.59
325.7
309
310.67
320.13
324.84
316.23
292.84
259.3
222.49
187.54
156
126.6
97.55
68.43
40.64
16.11
-4.21
-21.32
-37.59
-55.8
-77.7
-103.3
-131.22
-159.99
-189.27
-220.21
-254.46
-292.25
-330.84
-364.28
-385.14
-387.18
-367.59
-327.77
-272.45
-208
-140.9
-76.95
-21.17
22.32
50.87
64.14
64.35
55.57
42.27
27.87
14.25
2.07
-8.25
-16.24
-21.23
-22.72
-20.88
-16.58
-11.11
-5.72
-1.34
1.46
2.2
0
-6.52
-18.87
-37.82
-62.6
-90.41
-117.03
-138.28
-151.86
-158.3
-160.29
-160.74
-160.83
-159.54
-154.92
-146.43
-136.49
-130.03
-132.11
-144.9
-166.31
-190.94
-213.1
-229.89
-242.03
-252.24
-262.11
-269.69
-269.33
-254.33
-220.89
-171.32
-114.73
-64.06
-31.26
-22.16
-34.09
-57.1
-78.26
-86.51
-76.18
-47.81
-7.02
37.48
75.96
99.57
102.3
82.96
46.36
2.39
-37.23
-63.36
-72.88
-69.05
-58.53
-47.25
-37.42
-27.45
-14.28
3.61
24.82
45.75
62.6
73.43
78.58
80.3
81.24
83.41
87.88
95.41
107.46
126.42
154.74
192.91
237.66
281.35
313.6
325.1
311.76
276.8
229.44
180.68
138.68
106.63
83.91
69.33
63.64
69.25
87.21
113.82
139.87
153.19
143.5
106.5
45.33
-30.93
-110.47
-181.82
-235.92
-267.44
-275.6
-264.67
-242.85
-219.66
-202.44
-193.81
-191.36
-189.79
-184.12
-172.2
-155.02
-135.08
-114.42
-93.43
-71.01
-46
-18.26
10.94
39.37
65.24
88.68
112.61
142.13
182.16
234.17
293.65
350.17
390.56
404.06
386.61
342.14
280.06
210.74
142.25
79.71
27.17
-10.72
-29.3
-27.09
-9.17
12.52
23.22
12.31
-21.08
-67.02
-109.09
-131.44
-125.16
-90.8
-36.63
25.61
84.97
133.84
168.2
186.81
190.24
180.65
161.94
139.82
121
111.2
112.9
123.63
136.2
141.11
130.57
102.46
62.32
22.23
-3.41
-3.39
25.8
78.23
140.56
196.86
234.15
246.26
234.62
205.82
167.73
126.24
84.04
41.74
-0.1
-39.77
-74.63
-102.74
-124.48
-143.04
-163.47
-190.82
-228.61
-277.89
-336.85
-401.09
-464.06
-518.23
-556.62
-574.82
-572.21
-551.98
-519.6
-480.67
-439.15
-396.97
-354.91
-313.78
-274.95
-239.79
-208.52
-179.54
-149.71
-115.91
-76.69
-33.02
12.07
54.93
93.04
126.12
156.07
186.18
219.79
259.16
304.61
353.94
402.71
445.1
475.41
489.81
488.1
474.27
455.3
438.61
429.02
426.87
428.36
427.61
419.48
401.85
376.16
346.21
316.16
288.82
265.25
245.64
229.5
216.08
204.22
192.28
178.25
160.29
137.24
109.31
78.34
46.7
16.1
-13.06
-41.55
-70.84
-102.58
-138.18
-177.49
-217.4
-252.94
-278.89
-292.07
-292.78
-284.93
-274.43
-266.57
-267.81
-278.22
-291.94
-300.42
-298.5
-287.93
-276.12
-270.15
-275.67
-293.29
-317.94
-341.38
-355.33
-354.47
-336.93
-305.7
-267.33
-229.81
-198.87
-175.61
-157.4
-140.16
-120.58
-96.97
-69.24
-38.73
-8.82
15.04
26.44
20.05
-5.18
-44.17
-86.82
-121.92
-142.1
-146.82
-141.43
-133.25
-127.57
-125.5
-124.93
-123.16
-119.34
-114.82
-111.72
-110.58
-109.37
-104.19
-91.1
-68.35
-37.29
-2.17
31.72
60.2
81.8
98.09
112.62
128.95
149.01
172.62
198.3
224.59
250.65
275.54
296.57
308.41
303.97
277.28
227.25
159.79
86.97
23.19
-19.67
-35.82
-25.99
4.74
49.66
101.76
153.07
193.91
213.99
206.01
170.15
116.35
62.57
28.38
26.79
58.55
111.66
166.1
201.6
204.86
173.1
113.65
40.25
-31.86
-89.93
-125.86
-136.37
-122.15
-86.48
-35.15
23.49
78.33
117.12
128.83
106.46
50.22
-31.69
-125.15
-214.14
-285.19
-330.77
-350.31
-349.03
-335.77
-318.77
-302.8
-288.8
-274.98
-259.1
-240.55
-220.47
-201.04
-184.77
-171.46
-157.73
-139.33
-113.48
-80.42
-43.58
-6.47
28.05
56.5
79.51
101.99
129.08
163.75
205.83
252.58
303.53
357.89
408.43
449.2
477.84
492.54
493.1
481.56
461.43
440.89
424.62
403.1
367.55
317.76
258.89
201.3
157.08
135.2
144.62
186.41
243.64
302.59
361.16
421.44
487.43
561.52
598.71
563.59
507.97
453.95
382.02
288.86
180.05
68.7
-28.64
-97.91
-126.19
-112.57
-80.18
-53.55
-45.93
-61.68
-95.24
-134.76
-168.46
-184.83
-180.97
-171.19
-169.31
-179.85
-202.61
-234.12
-270.98
-312.32
-356.21
-400.5
-446.62
-489.66
-518.35
-524.88
-510.31
-485.83
-468.53
-470.89
-495.81
-538.25
-582.83
-609.78
-606.1
-570.31
-511.35
-443.25
-376.26
-315.16
-263.01
-218.15
-175.5
-131.64
-85.35
-36.6
14.28
69.12
127.99
182.93
224.85
248.24
251.22
237.6
216.34
198.54
196.49
216.93
253.75
298.21
345.36
392.7
440.81
491.77
525.09
522.44
507.44
488.14
450.18
389.16
308.55
218.55
132.28
60.65
11.7
-14.15
-28.99
-44.83
-66.44
-93.25
-119.95
-139.19
-144.66
-130.46
-94.19
-41.4
21.72
91.28
162.01
226.8
277.18
305.21
307.73
286.78
246.35
194.22
140.02
90.32
47.54
10.91
-21.7
-51.59
-79.27
-106.42
-134.31
-163.23
-193.32
-224.75
-258.12
-294.14
-332.43
-370.6
-404.36
-427.87
-435.92
-426.66
-402.51
-368.79
-330.83
-291.36
-249.75
-203.42
-150.33
-90.64
-26.61
39.05
104.94
171.37
239.13
307.43
372.62
428.57
468.67
488.07
485.7
464.62
431.01
391.98
353.5
319.11
289.73
264.5
242.02
221.32
202.11
184.43
168.09
152.38
136.15
118.32
98.27
76.21
52.94
29.53
6.88
-14.61
-34.98
-54.47
-73.18
-90.9
-107.02
-120.73
-131.28
-138.27
-141.74
-142.13
-140.07
-136.13
-130.78
-124.27
-116.76
-108.41
-99.41
-89.99
-80.37
-70.73
-61.04
-51.15
-40.8
-29.76
-17.85
-5.08
8.37
22.18
35.93
49.19
61.42
72.13
80.87
87.22
90.91
91.75
89.76
85.16
78.37
69.97
60.7
51.36
42.7
35.41
30.03
26.88
26.1
27.6
31.06
36.01
41.89
48.07
53.92
58.86
62.38
64.06
63.66
61.03
56.19
49.34
40.78
31.06
20.87
11.02
2.33
-4.52
-9.01
-10.99
-10.52
-7.98
-3.81
1.54
7.7
14.35
21.19
27.83
33.74
38.39
41.26
42.06
40.81
37.81
33.57
28.55
23
16.77
9.5
0.74
-9.63
-21.25
-33.2
-44.35
-53.8
-61.42
-68.1
-75.47
-85.35
-98.87
-115.87
-134.81
-153.32
-169.26
-181.8
-191.91
-202.04
-215.03
-232.74
-255.6
-280.66
-304.4
-323.66
-337.08
-345.67
-352.64
-362.41
-379.33
-406.96
-444.68
-488.87
-531.96
-563.5
-572.59
-551.45
-499.11
-423.46
-341.83
-271.39
-227.6
-216.34
-231.68
-258.4
-278.7
-279.42
-256.28
-217.8
-166.65
-109.02
-47.21
18.63
86.58
149.62
196.51
216.28
194.4
144.71
78.02
7.37
-57.83
-114.17
-162.55
-204.2
-237.68
-274.08
-294.88
-302.99
-307.05
-318.05
-343.56
-383.39
-429.13
-468.28
-509.4
-527.43
-525.73
-511.52
-491.11
-466.6
-436.09
-397.23
-230.86
-98.39
13.32
95.2
144.79
168.78
180.5
194.46
220.6
261.64
295.38
337.72
384.23
432.24
479.28
521.34
552.96
569.24
568.38
537.91
499.21
457.41
416.19
377.22
341.15
308.73
280.96
258.44
231.08
206.67
181.75
153.29
119.81
82.04
42.9
6.75
-21.63
-42.73
-49.52
-42.89
-26.62
-6.69
10.25
18.71
15.75
1.36
-23.56
-53.3
-83.81
-111.52
-133.68
-147.93
-151.85
-142.98
-119.11
-79.63
-26.85
33.46
92.5
140.47
169.22
175.07
160.48
133.65
106.07
88.71
88.08
104.09
130.33
156.88
174.03
175.5
159.62
128.16
84.3
31.42
-26.61
-84.23
-133.64
-166.73
-178.41
-169.88
-149.45
-129.36
-120.84
-129.52
-153.88
-187.39
-223.06
-257.25
-290.8
-326.86
-367.03
-408.58
-444.42
-465.93
-466.9
-446.46
-409.35
-363.67
-317.43
-275.62
-239.5
-207.77
-178.76
-152.03
-128.62
-109.95
-96.3
-86.23
-76.87
-65.43
-50.27
-31.63
-11.43
7.73
23.7
35.49
43.39
48.51
51.9
53.97
54.82
53.73
49.54
41.34
29.12
14.08
-1.82
-16.57
-28.68
-36.83
-40.56
-40.25
-36.77
-30.94
-23.24
-13.76
-2.62
9.91
24.89
42.74
62.77
83.28
102.45
119.12
132.83
143.48
151.15
160.04
173.06
190.13
208.2
223.81
235
241.62
244.4
244.34
250.76
269.84
301.38
338.87
374.82
405.07
429.2
448.93
466.55
497.56
552.25
630.41
721.4
812.38
895.31
967.64
1029.83
1083.02
1145.71
1229.73
1333.91
1443.93
1543.07
1621.14
1675.34
1706.86
1608.34
1329.14
897.24
408.13
-42.85
-405.77
-673.03
-858.52
-982.17
-1062.83
-1095.54
-1082.28
-1031.02
-958.58
-882.19
-811.3
-747.26
-686.91
-630.49
-566.51
-491.42
-412.64
-347.63
-312.93
-313.67
-342.92
-386.74
-431.4
-458.04
-461.7
-446.67
-424.91
-409.46
-407.82
-420.96
-445.21
-474.49
-497.4
-505.15
-493.65
-461.41
-414.2
-360.23
-307.5
-261.69
-225.33
-196.16
-170.83
-146.07
-120.49
-94.58
-68.91
-43.88
-19.89
2.55
23.24
42.65
62.29
84.03
108.78
136.5
165.99
195.12
221.74
244.8
265.2
286.1
311.92
346.11
389.15
436.93
480.7
508.98
511.06
481.04
420.59
339.55
253.5
179.8
132.55
118.48
135
171.37
212.39
243.27
253.84
240.68
206.52
157.73
101.29
42.61
-15.26
-71.42
-126.13
-179.8
-231.81
-279.86
-319.73
-346.33
-355.13
-343.84
-313.1
-266.19
-207.84
-143.16
-77.31
-15.5
36.97
75.3
96.3
99.45
87.2
64.16
35.67
6.29
-20.9
-44.15
-62.52
-74.95
-79.84
-75.26
-59.76
-33.56
0.37
36.2
66.46
84.28
86.05
72.65
49.17
22.51
-1.51
-20.68
-36.85
-54.45
-77.49
-106.69
-138.24
-164.91
-179.09
-176.24
-157.11
-127.38
-95.19
-67.81
-49.03
-38.42
-32.33
-25.75
-14.06
5.99
35.85
75.02
120.82
168.4
211.51
244.03
262.12
265.73
258.83
247.73
238.56
234.64
235.31
236.57
232.94
219.82
195.25
160.69
120.79
81.96
50.13
28.19
14.63
3.92
-10.41
-31.91
-58.21
-81.02
-89.18
-73.32
-29.93
37.11
117.95
200.11
271.93
324.97
354.98
361.7
348.12
319.46
281.96
241.43
202.64
168.83
141.82
122.18
109.17
100.62
93.39
84.32
71.44
54.91
36.82
20.12
7.32
-0.93
-6.11
-11.25
-19.7
-33.75
-53.8
-78.25
-104.31
-129.19
-151.37
-171.07
-190.07
-210.78
-235.06
-263.27
-294
-324.78
-352.92
-376.74
-396.07
-412.21
-427.48
-444.73
-467.04
-497.08
-536.22
-583.16
-633.16
-678.48
-710.38
-722.24
-712.03
-683.06
-642.32
-597.47
-553.94
-513.8
-476.35
-440
-403.86
-368.13
-333.55
-300.49
-268.41
-236.28
-203.29
-169.48
-135.67
-103.31
-73.6
-47.15
-23.77
-2.8
16.61
35.05
52.79
69.87
86.29
102.24
117.98
133.72
149.5
165.08
180.11
194.61
209.11
224.7
242.79
264.26
288.91
315.2
340.49
361.56
374.87
377.14
366.06
341.47
306.04
265.39
226.61
195.96
176.58
167.54
164.75
163.3
159.87
153.81
146.55
139.77
133.9
127.83
119.9
109.31
97.04
85.46
77.14
73.64
74.8
78.78
83.34
86.86
89.15
91.24
94.58
100.1
107.56
115.7
122.79
127.55
129.4
128.48
125.3
120.41
114.27
107.38
100.39
94.03
88.83
85.15
83.02
82.54
84.01
87.99
94.81
103.75
112.63
118.19
117.29
108.23
91.37
68.81
43.41
17.98
-4.83
-22.12
-30.51
-26.75
-9.33
20.04
55.86
90.18
115.14
125.48
119.97
100.99
72.95
40.62
8.09
-21.49
-46.06
-64.44
-76.73
-84.1
-88.57
-92.24
-96.58
-102.05
-108.08
-113.57
-117.35
-118.75
-117.72
-114.9
-111.31
-107.95
-105.36
-103.51
-101.8
-99.38
-95.73
-90.81
-85.06
-79.39
-74.76
-72.34
-72.83
-76.16
-81.2
-85.53
-86.23
-81
-69.16
-52.25
-33.4
-15.76
-1.07
10.9
21.84
33.47
46.24
58.92
69.35
75.63
77.14
74.66
69.72
63.66
57.22
50.34
42.77
34.71
26.9
20.48
16.44
14.94
15.52
16.87
17.59
16.72
14.11
10.42
6.86
4.6
4.27
5.65
7.73
9.14
8.79
6.26
1.81
-3.77
-9.64
-15.13
-19.82
-23.41
-25.63
-26.28
-25.41
-23.4
-20.92
-18.64
-16.95
-15.83
-14.96
-14
-12.83
-11.63
-10.72
-10.37
-10.68
-11.62
-13.07
-14.99
-17.35
-20.07
-23.06
-26.18
-29.23
-31.8
-33.21
-32.56
-28.95
-21.89
-11.56
0.98
14.17
26.29
35.99
42.57
46.01
46.82
45.7
43.29
40
36.02
31.44
26.46
21.46
16.96
13.42
11.11
10.01
9.94
10.72
12.18
14.23
16.63
19.04
20.88
21.63
21.02
19.17
16.57
13.88
11.65
10.29
9.85
10.23
11.17
12.39
13.61
14.67
15.44
15.88
15.99
15.74
15.18
14.46
13.94
14.11
15.41
17.97
21.34
24.5
26.08
24.99
20.84
14.19
6.32
-1.28
-7.57
-12.34
-15.81
-18.5
-20.73
-22.35
-23.08
-22.92
-22.21
-21.45
-20.87
-20.17
-19
-17.61
-17.67
-22.05
-33.5
-52.72
-77.09
-101.08
-118.35
-124.68
-119.82
-107.38
-92.69
-80.11
-71.27
-65.07
-59.29
-52.32
-44.07
-35.55
-27.81
-21.23
-15.24
-9.14
-2.79
3.23
8.16
11.44
13.23
14.16
14.83
15.55
16.07
15.89
14.57
12
8.48
4.71
1.56
-0.18
0.01
2.07
5.33
8.49
10.21
9.52
6.49
2.39
-0.68
-0.54
4.17
13.29
25.01
36.42
44.67
48.08
46.95
43.37
40.42
40.75
45.47
53.73
63.3
71.62
76.96
78.97
78.51
76.94
75.25
73.51
70.95
66.48
59.62
51.03
42.49
35.99
32.71
32.12
32
29.32
21.63
8.21
-9.55
-28.88
-46.99
-62.43
-75.6
-88.25
-102.24
-118.6
-137.29
-157.6
-178.84
-200.66
-222.56
-242.97
-258.64
-265.1
-258.3
-236.63
-202.34
-161.1
-119.78
-83.67
-54.6
-30.87
-8.93
14.22
39.48
65.66
90.78
113.6
134.4
154.49
174.76
194.63
211.78
223.25
226.82
222.15
210.81
195.32
177.93
159.9
141.69
123.7
106.93
93.12
83.91
79.95
80.15
82.04
82.63
79.57
71.89
60.03
45.29
29.09
12.46
-4.16
-20.81
-37.66
-54.71
-71.5
-87.2
-100.85
-111.83
-120.15
-126.46
-131.76
-136.78
-141.7
-145.89
-148.34
-148.02
-144.46
-137.94
-129.51
-120.51
-112.09
-104.69
-97.97
-90.98
-82.74
-72.64
-60.79
-47.9
-35.08
-23.46
-13.98
-6.93
-1.75
3.07
9.64
19.81
34.16
51.45
69.05
84.21
95.41
103.04
108.81
114.32
119.66
123.12
122.08
114.52
100.11
80.41
58
35.46
14.73
-2.94
-16.61
-25.55
-29.45
-28.82
-25.32
-21.46
-19.74
-21.56
-26.45
-32.1
-35.18
-32.73
-23.35
-7.93
10.81
29.52
45.62
58.18
67.74
75.28
80.95
83.56
80.96
71.3
54.14
31.14
5.58
-18.62
-38.05
-50.49
-55
-51.81
-42.1
-28.24
-13.9
-3.75
-2.34
-12.3
-32.71
-58.9
-83.86
-101.06
-107.25
-103.75
-95.48
-88.16
-85.32
-86.82
-89.31
-88.72
-82.73
-71.95
-59.42
-48.67
-41.72
-38.11
-35.55
-31.22
-23.4
-12.19
0.78
13.43
24.19
32.49
38.45
42.17
43.35
41.34
35.72
26.96
16.56
6.58
-1.36
-6.83
-10.78
-14.85
-20.25
-26.99
-33.66
-38.17
-38.71
-34.61
-26.71
-17.15
-8.89
-4.97
-7.78
-18.41
-36.02
-57.6
-78.45
-93.04
-96.5
-85.99
-61.27
-24.53
20.64
70.69
123.19
177.12
232.04
286.9
339.23
385.37
421.8
446.64
460.3
464.69
461.59
451.11
431.61
401.06
359.15
308.53
254.54
203.08
157.97
119.31
83.71
46.55
4.79
-41.1
-87.21
-128.04
-158.84
-177.28
-183.68
-180.12
-169.38
-154.68
-140.13
-130.85
-132.06
-146.64
-172.9
-203.73
-228.79
-238.52
-228.24
-199.89
-160.33
-117.41
-75.98
-36.49
3.5
45.77
88.53
125.98
150.7
157.39
145.66
120.13
87.79
54.48
22.4
-9.94
-45.71
-86.94
-132.91
-180.57
-226
-266.11
-299.45
-325.96
-346.32
-361.3
-371.39
-376.41
-375.41
-366.55
-347.65
-317.12
-275.21
-224.92
-171.71
-122
-80.93
-50.23
-27.4
-6.8
17.65
49.18
85.9
120.67
143.35
144.59
119.62
70.33
4.88
-64.95
-127.19
-172.82
-197.2
-199.84
-183.13
-150.71
-106.14
-52.51
7
68.18
125.31
171.78
201.86
212.82
206.34
187.98
165.01
143.61
126.9
114.82
105.69
98.19
92.35
89.26
89.74
93.38
98.42
102.55
103.91
101.64
95.93
87.76
78.91
71.65
68.32
70.08
75.64
80.83
79.57
66.61
40.57
5.62
-29.29
-53.67
-59.67
-45.36
-15.61
19.62
48.77
62.38
55.81
29.86
-10.41
-57.96
-105.85
-148.58
-182.49
-205.66
-217.75
-219.77
-213.82
-202.29
-186.95
-168.23
-145.21
-116.45
-80.8
-38.07
10.97
64.9
121.7
178.45
231.28
275.74
308.1
326.94
333.85
332.74
327.8
321.48
313.52
301.43
282.25
254.27
217.71
174.13
125.33
72.71
17.42
-38.71
-92.44
-139.28
-174.6
-195.22
-200.9
-194.75
-182.27
-169.6
-161.56
-160.34
-165.27
-173.68
-182.21
-188.23
-190.52
-189.16
-185.1
-179.54
-173.88
-169.63
-168.08
-169.66
-173.07
-175.49
-173.68
-165.78
-152.53
-137.01
-122.83
-111.92
-103.72
-96.11
-87.56
-78.67
-71.82
-68.96
-69.37
-69.01
-62.24
-45.06
-17.56
15.75
48.1
73.48
89.11
95.96
97.51
97.69
99.2
102.93
108.49
115.09
122.3
130.25
139.17
148.8
157.86
164.34
166.15
162.14
152.74
139.85
126.03
113.38
102.76
93.74
85.18
76.1
66.22
55.88
45.65
35.95
26.96
18.89
12.31
8.29
8.12
12.87
22.93
37.76
55.97
75.55
94.33
110.42
122.63
130.62
134.84
136.19
135.55
133.44
129.82
124.14
115.68
103.92
88.99
71.95
54.84
40.27
30.71
27.63
30.82
38.25
46.51
51.8
50.91
42.18
25.96
4.61
-18.12
-38.05
-51.89
-58.29
-58.33
-54.94
-51.62
-51.02
-53.82
-58.74
-63.31
-65.1
-62.77
-56.45
-47.5
-37.96
-29.79
-24.47
-22.78
-24.64
-29.07
-34.36
-38.35
-39.09
-35.35
-27.12
-15.38
-1.62
12.8
27.08
41.07
54.94
68.84
82.74
96.41
109.62
122.25
134.21
145.31
155.09
163.05
168.79
172.36
174.22
174.89
174.46
172.18
166.39
154.91
135.8
107.99
71.69
28.4
-19.57
-69.7
-119.73
-167.6
-211.47
-249.82
-281.86
-308.3
-331.94
-357.38
-389.86
-432.41
-483.59
-536.73
-581.46
-607.41
-608.21
-583.92
-540.55
-487.52
-433.46
-383.53
-338.96
-298.5
-260.66
-225.04
-192.33
-162.8
-136.24
-110.62
-83.22
-51.9
-16.14
22.94
62.83
100.92
136.42
167.95
196.7
225.02
255.63
290.52
329.82
371.15
410.13
444.12
467.81
480.68
484.59
481.74
472.9
456.27
428.44
386.6
333.82
269.57
198.27
123.89
48.87
-25.15
-95.54
-157.27
-203.52
-223.89
-220.13
-194.48
-153.08
-103.02
-49.35
6.28
64.3
97.16
133.08
159.67
168.51
154.72
120.06
72.95
25.23
-12.81
-36.18
-42.12
-40.75
-38.26
-38.38
-41.58
-46.45
-51.71
-57.49
-65.16
-72.84
-84.47
-99.54
-116.96
-135.62
-154.54
-172.61
-188.32
-199.83
-203.36
-199.9
-189.28
-172.37
-151.01
-127.97
-106.44
-89.16
-77.3
-68.44
-59.61
-45.3
-20.62
16.63
64.89
119.25
173.05
219.93
255.85
278.56
288.53
287.86
279.21
265.19
247.81
228.52
208.34
188.04
168.33
149.73
132.53
116.91
103.18
91.93
83.96
79.9
79.55
81.62
83.79
83.5
78.81
69.01
54.83
38.01
20.7
4.83
-8.29
-18.07
-24.66
-28.85
-31.77
-34.59
-38.16
-42.76
-48.04
-53.24
-57.51
-60.24
-61.28
-60.86
-59.55
-57.99
-56.64
-55.74
-55.21
-54.71
-53.83
-52.15
-49.44
-45.75
-41.33
-36.68
-32.56
-29.94
-30.04
-34.04
-42.51
-55.09
-70.13
-84.97
-96.66
-102.87
-102.7
-96.88
-87.41
-76.72
-67.07
-59.94
-55.83
-54.19
-53.4
-51.03
-44.47
-31.71
-12.31
12.27
39.02
64.39
85.48
100.73
110.01
113.97
113.44
109.1
101.61
91.98
81.61
71.84
63.52
56.63
50.42
43.92
36.39
27.69
18.22
8.58
-0.6
-8.92
-16.11
-22.12
-27.09
-31.26
-34.82
-37.58
-38.94
-37.93
-33.79
-26.55
-17.21
-7.5
0.78
6.46
9.29
9.84
9.02
7.81
6.84
6.5
7.03
8.59
11.13
14.38
17.81
20.89
23.3
24.99
26.1
26.63
26.12
23.73
18.72
10.96
1.16
-9.36
-19.31
-27.95
-35.27
-41.52
-46.61
-49.7
-49.54
-45.17
-36.67
-25.57
-14.33
-5.5
-0.79
-0.64
-4.15
-9.64
-15.21
-19.16
-20.47
-19.02
-15.52
-11.29
-7.76
-5.93
-6.07
-7.64
-9.64
-11.06
-11.25
-10.16
-8.25
-6.3
-5.03
-4.9
-5.87
-7.53
-9.24
-10.49
-11.09
-11.31
-11.66
-12.55
-14.04
-15.7
-16.78
-16.62
-14.99
-12.14
-8.76
-5.59
-3.15
-1.5
-0.41
0.5
1.42
2.29
2.83
2.73
1.9
0.56
-0.91
-2.13
-2.88
-3.22
-3.41
-3.73
-4.3
-5.04
-5.72
-6.1
-6.06
-5.64
-5.01
-4.42
-4.09
-4.2
-4.8
-5.92
-7.45
-9.24
-11.09
-12.78
-14.17
-15.14
-15.6
-15.42
-14.44
-12.52
-9.65
-6.05
-2.24
1.15
3.52
4.45
3.89
2.12
-0.35
-2.98
-5.35
-7.27
-8.72
-9.73
-10.27
-10.24
-9.56
-8.21
-6.4
-4.45
-2.72
-1.38
-0.35
0.63
1.79
3.12
4.36
5.11
5.19
4.73
4.25
4.36
5.45
7.53
10.21
12.92
15.17
16.74
17.55
17.6
16.86
15.22
12.69
9.4
5.72
2.04
-1.33
-4.3
-6.93
-9.32
-11.53
-13.44
-14.91
-15.78
-16.08
-15.92
-15.54
-15.14
-14.91
-14.98
-15.54
-16.83
-19.08
-22.28
-26.03
-29.52
-31.67
-31.53
-28.73
-23.56
-17.04
-10.46
-4.95
-1.19
0.77
1.32
1.09
0.71
0.61
0.98
1.78
2.72
3.41
3.51
2.91
1.86
0.92
0.74
1.75
3.96
6.89
9.85
12.22
13.69
14.22
13.96
12.99
11.31
8.91
5.95
2.77
-0.17
-2.47
-4.03
-4.98
-5.59
-6.11
-6.61
-7.07
-7.37
-7.38
-6.99
-6.11
-4.77
-3.19
-1.84
-1.32
-2.12
-4.38
-7.75
-11.48
-14.65
-16.51
-16.66
-15.12
-12.22
-8.5
-4.54
-0.83
2.24
4.5
5.92
6.63
6.76
6.42
5.7
4.72
3.71
2.97
2.8
3.41
4.76
6.63
8.66
10.44
11.68
12.21
12.06
11.41
10.62
10
9.75
9.81
9.85
9.49
8.44
6.7
4.57
2.48
0.83
-0.25
-0.88
-1.39
-2.15
-3.39
-5.13
-7.17
-9.2
-10.95
-12.3
-13.29
-14.14
-15.12
-16.49
-18.31
-20.47
-22.67
-24.47
-25.43
-25.2
-23.62
-20.71
-16.64
-11.69
-6.27
-0.87
3.98
7.76
10.17
11.12
10.79
9.55
7.83
6.04
4.5
3.46
3.11
3.56
4.83
6.84
9.39
12.18
14.85
17.04
18.5
19.14
19.07
18.52
17.71
16.79
15.74
14.46
12.84
10.91
8.83
6.84
5.15
3.88
2.95
2.15
1.18
-0.2
-2.01
-4.07
-6.07
-7.73
-8.94
-9.76
-10.45
-11.29
-12.53
-14.36
-16.85
-19.88
-23.12
-26.02
-27.9
-28.18
-26.54
-23.08
-18.27
-12.81
-7.41
-2.61
1.35
4.51
7.11
9.45
11.63
13.61
15.1
15.87
15.81
15.08
14.05
13.06
12.38
12.06
12.09
12.39
12.91
13.59
14.27
14.66
14.49
13.58
12.01
10.11
8.29
6.87
5.9
5.2
4.47
3.51
2.39
1.33
0.57
0.1
-0.35
-1.16
-2.59
-4.5
-6.45
-7.89
-8.55
-8.63
-8.66
-9.31
-11.01
-13.85
-17.63
-21.96
-26.4
-30.4
-33.32
-34.45
-33.15
-29.19
-22.92
-15.25
-7.41
-0.6
4.4
7.43
8.86
9.39
9.72
10.32
11.32
12.52
13.56
14.17
14.3
14.16
14.12
14.55
15.64
17.37
19.57
21.92
24.13
25.96
27.2
27.73
27.52
26.61
25.09
23.02
20.45
17.37
13.82
9.96
6.05
2.43
-0.65
-3.14
-5.17
-6.99
-8.81
-10.67
-12.47
-14.07
-15.39
-16.58
-17.98
-19.97
-22.78
-26.3
-29.98
-32.95
-34.28
-33.33
-29.99
-24.71
-18.28
-11.56
-5.25
0.2
4.57
7.77
9.83
10.94
11.47
11.99
13.04
14.9
17.43
20.02
21.97
22.72
22.19
20.69
18.73
16.78
15.11
13.75
12.6
11.59
10.72
10.03
9.6
9.5
9.75
10.39
11.42
12.74
14.13
15.31
15.91
15.63
14.29
11.86
8.55
4.72
0.85
-2.62
-5.47
-7.81
-10.04
-12.72
-16.43
-21.48
-27.78
-34.64
-40.89
-45.06
-45.82
-42.45
-35.17
-25.18
-14.31
-4.41
3.17
7.99
10.42
11.32
11.51
11.45
11.12
10.25
8.56
6.12
3.41
1.08
-0.23
-0.32
0.63
2.17
3.85
5.43
6.94
8.48
10.05
11.51
12.66
13.37
13.66
13.63
13.33
12.67
11.45
9.53
7.09
4.66
2.83
1.95
1.82
1.67
0.41
-2.84
-8.24
-15.1
-22.1
-27.82
-31.29
-32.33
-31.39
-29.2
-26.23
-22.48
-17.58
-11.14
-3.24
5.44
13.75
20.62
25.6
29.23
32.73
37.45
44.05
51.93
59.42
64.35
65.06
61.18
53.81
45.03
37.07
31.51
28.87
28.66
29.77
30.86
30.73
28.68
24.78
20.14
16.87
17.42
23.46
34.68
48.05
58.42
60.14
49.18
24.79
-10.09
-49.81
-87.7
-117.98
-136.99
-143.82
-140.09
-129.43
-116.28
-104.69
-97.31
-94.64
-95.44
-97.78
-100.32
-103.05
-106.89
-112.55
-119.46
-125.48
-127.53
-122.83
-109.58
-87.28
-56.58
-19.44
20.76
59.2
90.37
109.67
114.8
106.48
87.71
62.38
33.96
5.19
-21.32
-42.33
-54.07
-53.66
-40.6
-17.86
8.75
32.5
47.93
52.44
46.55
33.23
16.79
1.71
-8.33
-11.15
-6.28
5.03
20.38
36.92
52.15
64.4
72.98
77.94
79.59
78.21
73.82
66.46
56.45
44.75
32.95
23.02
16.77
15.25
18.39
24.96
32.93
40.06
44.54
45.29
41.98
34.99
25.14
13.56
1.62
-9.21
-17.57
-22.38
-23.16
-20.18
-14.4
-7.3
-0.58
4.25
6.16
4.8
0.51
-5.89
-13.41
-21.16
-28.52
-35.03
-40.17
-43.27
-43.63
-40.86
-35.19
-27.61
-19.51
-12.18
-6.2
-1.21
3.81
9.92
17.44
25.55
32.48
36.32
35.87
31.35
24.37
17.27
12.18
10.2
11.11
13.73
16.68
18.98
20.33
20.94
21
20.38
18.6
15.24
10.24
4.17
-2.04
-7.44
-11.48
-14.13
-15.67
-16.55
-17.05
-17.41
-17.91
-18.91
-20.75
-23.59
-27.13
-30.7
-33.36
-34.28
-32.9
-29.12
-23.21
-15.68
-7.18
1.55
9.76
16.82
22.27
25.89
27.75
28.11
27.32
25.82
24.11
22.76
22.3
23.05
24.85
27.1
28.87
29.34
28.17
25.7
22.75
20.22
18.65
18.01
17.74
17.11
15.5
12.64
8.64
3.9
-1.08
-5.77
-9.75
-12.77
-14.77
-15.92
-16.58
-17.16
-18.07
-19.55
-21.65
-24.13
-26.49
-28.12
-28.45
-27.19
-24.37
-20.36
-15.64
-10.72
-5.96
-1.6
2.21
5.33
7.68
9.25
10.2
10.78
11.25
11.74
12.22
12.62
12.9
13.08
13.24
13.45
13.65
13.81
13.91
14.04
14.34
14.88
15.49
15.81
15.42
14.07
11.84
9.19
6.73
4.94
4.01
3.8
3.98
4.2
4.24
3.92
3.11
1.69
-0.37
-2.97
-5.76
-8.26
-9.93
-10.35
-9.45
-7.48
-5.07
-2.99
-1.97
-2.41
-4.28
-7.03
-9.81
-11.73
-12.14
-10.83
-7.99
-4.14
0.06
3.99
7.11
9.09
9.79
9.32
7.9
5.78
3.11
-0.09
-3.72
-7.48
-10.76
-12.79
-12.98
-11.3
-8.46
-5.59
-3.77
-3.41
-4.13
-4.96
-4.92
-3.44
-0.53
3.41
7.97
12.84
17.74
22.2
25.35
26.16
23.83
18.26
10.3
1.55
-6.21
-11.55
-13.88
-13.48
-11.31
-8.57
-6.29
-5.01
-4.77
-5.32
-6.44
-8.2
-10.92
-14.87
-19.87
-25.07
-29.16
-30.85
-29.52
-25.52
-19.99
-14.39
-9.84
-6.76
-4.91
-3.74
-2.75
-1.73
-0.7
0.21
0.95
1.61
2.36
3.45
5
7.02
9.32
11.58
13.47
14.74
15.33
15.38
15.05
14.39
13.28
11.48
8.82
5.35
1.41
-2.38
-5.34
-6.93
-6.9
-5.41
-2.95
-0.22
2.12
3.59
4
3.46
2.37
1.27
0.76
1.3
3.04
5.83
9.19
12.49
15.13
16.67
16.87
15.67
13.11
9.37
4.79
-0.12
-4.7
-8.29
-10.34
-10.56
-8.92
-5.63
-1.1
4.12
9.35
13.82
16.74
17.41
15.38
10.7
3.88
-4.06
-11.89
-18.41
-22.67
-24.03
-22.21
-17.29
-9.77
-0.75
8.19
15.22
18.84
18.37
14.27
7.89
0.93
-5.25
-10.12
-14.09
-18.1
-22.89
-28.41
-33.43
-35.77
-33.14
-24.3
-9.84
7.45
23.56
34.48
37.86
33.73
24.4
13.24
3.22
-4.3
-9.82
-15.02
-21.71
-30.58
-40.74
-49.82
-54.98
-53.99
-46.13
-32.56
-15.95
0.37
13.34
21.06
23.07
20.28
14.4
7.39
0.79
-4.47
-8.15
-10.43
-11.49
-11.36
-9.79
-6.47
-1.27
5.53
13.24
21.07
28.32
34.63
39.9
43.99
46.5
46.78
44.14
38.37
30.03
20.45
11.41
4.57
0.98
0.83
3.53
7.98
12.87
16.91
18.91
18.09
14.19
7.69
-0.32
-8.45
-15.58
-21.3
-26.03
-30.68
-36
-41.97
-47.66
-51.52
-52.12
-48.84
-42.17
-33.48
-24.45
-16.48
-10.46
-6.82
-5.71
-6.88
-9.46
-11.75
-11.51
-6.82
2.91
16.4
30.69
42.3
48.58
48.67
43.61
35.64
27.28
20.45
16.15
14.5
14.97
16.67
18.6
19.82
19.69
17.89
14.42
9.43
3.14
-4.12
-11.84
-19.31
-25.75
-30.54
-33.5
-34.97
-35.67
-36.44
-37.97
-40.52
-43.91
-47.6
-50.95
-53.51
-55.11
-55.94
-56.17
-55.73
-54.13
-50.56
-44.36
-35.48
-24.74
-13.66
-3.94
3.23
7.58
9.74
10.86
11.99
13.6
15.5
17.1
17.82
17.62
17.14
17.55
20.06
25.33
33.16
42.46
51.63
59.06
63.47
64.18
61.16
55.07
47.12
38.93
32.13
27.7
25.5
23.99
20.74
13.45
1.21
-14.79
-31.43
-44.84
-52.08
-52.3
-47.08
-39.46
-32.51
-28.1
-26.4
-26.44
-26.96
-27.23
-27.27
-27.58
-28.47
-29.72
-30.61
-30.32
-28.48
-25.46
-22.35
-20.49
-20.87
-23.46
-27.13
-29.99
-30.23
-27.08
-21.32
-15.1
-11.03
-11.08
-15.52
-22.81
-30.01
-33.88
-32.04
-23.81
-10.31
5.88
21.6
34.01
41.29
43.08
40.62
36.24
32.72
32.32
36.02
43.08
51.5
58.77
63.01
63.82
62.34
60.66
60.6
62.63
65.45
66.57
63.49
54.85
41.11
24.37
7.53
-6.62
-16.12
-20.12
-18.8
-13.27
-5.27
2.94
9.07
11.28
8.78
2.01
-7.6
-18.1
-27.7
-35.05
-39.39
-40.57
-39.11
-36.13
-33.21
-31.86
-33
-36.56
-41.42
-45.93
-48.54
-48.34
-45.15
-39.28
-31.07
-20.75
-8.6
4.6
17.21
26.84
31.06
28.47
19.54
6.69
-6.55
-16.98
-23.1
-25.59
-26.86
-29.52
-35.04
-43
-51.37
-57.5
-59.29
-55.76
-47.17
-34.64
-19.63
-3.77
11.27
24.05
33.64
39.97
43.95
47.09
50.82
55.87
61.9
67.69
71.77
73.25
72.28
70.13
68.6
69.21
72.3
76.79
80.47
81.01
77
68.57
57.4
45.85
35.97
28.62
23.22
18.1
11.17
0.62
-14.68
-34.88
-59.17
-85.72
-111.82
-134.18
-149.49
-155.07
-149.63
-133.78
-110.22
-83.22
-57.69
-37.7
-25.3
-19.9
-18.77
-18.29
-15.63
-9.79
-1.74
6.34
12.2
14.46
12.97
8.68
3.24
-1.36
-3.14
-0.54
7.04
18.88
32.91
46.31
56.3
61.08
60.13
54.13
44.4
32.43
19.61
7.16
-3.92
-12.95
-19.82
-24.95
-29.04
-32.7
-36.04
-38.7
-40.27
-40.76
-40.88
-41.73
-44.32
-48.9
-54.73
-60.38
-64.23
-65
-61.98
-55.05
-44.53
-31.11
-15.94
-0.57
13.24
23.96
30.84
34.2
35.3
35.71
36.63
38.31
40.02
40.55
38.91
34.94
29.44
23.93
20.08
19.22
22.05
28.5
37.8
48.42
58.36
65.54
68.45
66.81
61.62
54.75
48.02
42.57
38.46
35.06
31.63
27.77
23.64
19.68
16.3
13.71
11.84
10.39
8.93
6.84
3.52
-1.36
-7.62
-14.37
-20.21
-23.65
-23.67
-20.23
-14.39
-8.12
-3.51
-2.13
-4.28
-8.87
-13.99
-17.67
-18.69
-16.86
-12.83
-7.46
-1.42
4.87
11.05
16.45
20.17
21.48
20.26
17.19
13.6
10.81
9.62
9.97
11.12
12.07
12.02
10.63
8
4.52
0.61
-3.49
-7.74
-12.2
-16.84
-21.48
-25.7
-29.09
-31.34
-32.38
-32.4
-31.66
-30.35
-28.61
-26.58
-24.61
-23.24
-23.03
-24.18
-26.28
-28.27
-28.79
-26.72
-21.65
-14.1
-5.37
2.95
9.49
13.52
15.14
15.19
14.84
15.23
16.96
19.87
23.03
25.07
24.69
21.23
14.96
7.07
-0.7
-6.6
-9.56
-9.41
-7.04
-4.09
-2.38
-3.3
-7.28
-13.49
-20.13
-25
-26.35
-23.48
-16.96
-8.31
0.65
8.45
14.29
17.97
19.67
19.71
18.46
16.41
14.2
12.47
11.6
11.53
11.79
11.71
10.79
8.86
6.1
2.96
-0.09
-2.59
-4.29
-5.15
-5.43
-5.56
-6.04
-7.12
-8.62
-10.03
-10.66
-10.22
-8.89
-7.39
-6.56
-6.89
-8.36
-10.4
-12.22
-13.11
-12.7
-10.93
-8.04
-4.44
-0.64
2.78
5.38
6.97
7.75
8.16
8.73
9.82
11.45
13.39
15.3
16.9
18.08
18.85
19.21
19.18
18.72
17.89
16.8
15.62
14.56
13.74
13.18
12.83
12.53
12.1
11.33
10.08
8.29
6.06
3.59
1.14
-1.05
-2.8
-4.09
-5
-5.69
-6.37
-7.22
-8.38
-9.88
-11.69
-13.57
-15.14
-15.91
-15.43
-13.54
-10.45
-6.81
-3.35
-0.64
1.23
2.63
4.12
6.08
8.46
10.87
12.76
13.74
13.79
13.18
12.33
11.65
11.37
11.53
12.05
12.73
13.36
13.74
13.75
13.36
12.62
11.61
10.38
8.99
7.58
6.28
5.27
4.57
4.07
3.49
2.58
1.25
-0.35
-1.87
-2.99
-3.56
-3.68
-3.64
-3.73
-4.23
-5.26
-6.89
-9.15
-12.03
-15.4
-18.98
-22.27
-24.64
-25.54
-24.64
-21.98
-18
-13.36
-8.8
-4.86
-1.83
0.34
1.84
2.93
3.78
4.44
4.93
5.32
5.78
6.47
7.54
8.98
10.61
12.19
13.56
14.72
15.82
17.04
18.4
19.65
20.41
20.32
19.26
17.41
15.1
12.65
10.19
7.74
5.33
3.13
1.4
0.39
0.09
0.23
0.42
0.37
0.03
-0.41
-0.73
-0.81
-0.7
-0.54
-0.48
-0.61
-0.99
-1.78
-3.22
-5.48
-8.59
-12.27
-16.01
-19.29
-21.8
-23.52
-24.69
-25.54
-26.08
-25.97
-24.63
-21.61
-16.78
-10.56
-3.84
2.35
7.18
10.27
11.74
12.08
11.84
11.4
10.94
10.44
9.85
9.18
8.51
7.95
7.55
7.25
6.94
6.58
6.22
6.06
6.3
7.04
8.17
9.35
10.11
10.05
9.01
7.13
4.78
2.39
0.24
-1.6
-3.14
-4.34
-4.99
-4.83
-3.79
-2.16
-0.57
0.2
-0.31
-2.09
-4.58
-7.04
-8.87
-9.92
-10.42
-10.82
-11.43
-12.35
-13.45
-14.55
-15.44
-15.98
-16.06
-15.52
-14.23
-12.05
-9.02
-5.31
-1.35
2.35
5.27
7.02
7.53
6.99
5.89
4.69
3.73
3.09
2.64
2.2
1.73
1.38
1.43
2.07
3.33
4.99
6.71
8.24
9.51
10.65
11.85
13.17
14.43
15.2
15.03
13.61
10.99
7.55
3.83
0.36
-2.53
-4.7
-6.11
-6.81
-6.85
-6.42
-5.8
-5.34
-5.31
-5.78
-6.55
-7.29
-7.74
-7.86
-7.91
-8.27
-9.27
-11.06
-13.49
-16.23
-18.75
-20.48
-20.87
-19.59
-16.65
-12.45
-7.67
-3.16
0.41
2.71
3.8
4.06
3.96
3.93
4.19
4.74
5.4
5.97
6.28
6.23
5.83
5.18
4.43
3.82
3.57
3.92
4.94
6.47
8.04
9
8.76
7.05
4.05
0.32
-3.45
-6.61
-8.82
-9.99
-10.19
-9.57
-8.28
-6.56
-4.66
-2.96
-1.82
-1.41
-1.72
-2.47
-3.35
-4.15
-4.85
-5.61
-6.63
-7.98
-9.55
-11.14
-12.58
-13.88
-15.18
-16.69
-18.35
-19.85
-20.66
-20.31
-18.58
-15.64
-11.95
-8
-4.16
-0.61
2.57
5.29
7.4
8.67
9.05
8.69
7.97
7.34
7.13
7.38
7.89
8.28
8.25
7.75
6.95
6.18
5.74
5.75
6.09
6.46
6.55
6.13
5.18
3.83
2.29
0.74
-0.62
-1.64
-2.2
-2.2
-1.57
-0.33
1.49
3.83
6.59
9.65
12.75
15.54
17.62
18.61
18.36
16.96
14.72
12.03
9.25
6.53
3.83
0.97
-2.24
-5.91
-9.88
-13.77
-17.03
-19.1
-19.63
-18.63
-16.43
-13.62
-10.84
-8.51
-6.82
-5.66
-4.64
-3.16
-0.62
3.49
9.37
16.73
24.75
32.25
37.94
40.81
40.45
37.01
31.21
24
16.36
9.12
2.84
-2.19
-6.1
-9.34
-12.54
-16.27
-20.73
-25.53
-29.77
-32.42
-32.73
-30.59
-26.63
-21.95
-17.64
-14.31
-11.88
-9.49
-5.96
-0.25
7.85
17.34
26.07
31.27
30.73
23.82
12.17
-0.71
-10.56
-13.91
-9.38
2.05
17.64
34.22
49.44
62.28
72.71
80.77
85.9
86.91
82.73
73.28
59.78
44.16
27.75
10.61
-8.32
-29.82
-52.86
-74.32
-90.49
-99.75
-104.28
-109.33
-120.04
-137.97
-159.39
-176.9
-183.33
-175.79
-157.16
-134.42
-114.79
-102.04
-95.05
-88.99
-78.1
-58.54
-29.78
5.31
41.67
73.53
95.8
105.27
101.48
86.82
65.79
43.86
25.84
14.64
10.78
12.66
17.49
22.53
25.9
26.84
25.48
22.51
18.88
15.87
15.01
17.81
25.22
36.95
51.19
64.93
74.9
78.65
75.41
66.24
53.69
40.86
30.49
24.22
22.4
24.16
27.85
31.58
33.71
33.24
29.88
23.93
15.96
6.65
-3.53
-14.07
-24.68
-35.22
-45.84
-56.81
-68.04
-78.37
-85.11
-84.53
-73.37
-50.77
-19.59
13.9
42.1
59.1
62.98
56.34
44.57
33.11
25.07
20.62
17.97
15.27
11.95
8.77
6.79
6.15
5.55
3.08
-2.39
-10.01
-16.98
-19.48
-14.57
-1.35
18.64
42.13
65.49
85.6
99.98
106.48
102.95
87.32
58.38
16.6
-34.97
-90.67
-142.89
-183.51
-206.04
-207.37
-189.09
-157.05
-119.64
-85
-58.41
-41.2
-31.43
-25.8
-21.55
-17.29
-12.29
-5.45
5.13
21.34
43.33
68.47
91.71
107.62
112.92
108.46
98.98
91.26
91.34
102.42
124.11
152.78
182.73
207.88
223.17
226.07
217.25
200.25
180.08
161.67
148.38
141.55
140.73
144.02
148.43
150.18
145.46
131.91
110.18
84.39
60.74
44.94
39.54
43.01
51.15
59.81
67
73.25
80.46
89.77
100.86
112.23
122.43
130.67
136.58
139.65
138.69
132.93
123.13
112.25
104.36
102.48
106.16
110.94
110.4
99.83
79.56
55.39
35.84
27.52
31.51
42.83
53.18
55.48
46.89
29.49
7.96
-13.42
-32.79
-50.95
-69.82
-90.93
-113.75
-135.77
-153.35
-163.18
-163.94
-157.13
-147.03
-139.2
-138.69
-148.3
-168.14
-196.42
-230.91
-269.82
-311.25
-352.03
-386.34
-405.8
-401.53
-367.59
-304.19
-219.64
-129.25
-50.95
0.82
20.49
13.01
-9.01
-31.49
-45.11
-48.43
-46.35
-45.48
-49.58
-57.97
-67.35
-75.51
-84
-97.65
-121.68
-158.43
-206.07
-260.08
-315.74
-370.19
-422.12
-469.87
-509.84
-536.29
-543.07
-526.55
-487.71
-431.88
-366.75
-299.38
-234.53
-174.09
-118.12
-66.36
-18.76
24.86
65.58
105.42
146.86
191.68
239.84
289.01
334.54
370.08
388.53
383.79
352.52
296.23
222.46
144.01
76.16
32.7
21.99
44.59
93.31
155.28
215.78
262.03
285.74
283.85
257.66
212.16
154.59
93.26
36.03
-11.8
-49.54
-81.62
-116.11
-161.23
-220.56
-290.12
-358.95
-413.36
-442.69
-443.6
-420.49
-382.48
-339.43
-298.27
-261.92
-230.44
-203.32
-180.64
-162.98
-150.09
-140.11
-130.46
-118.39
-102.12
-81.49
-58.09
-34.51
-12.93
6.27
24.31
42.37
61.35
81.09
100.43
117.06
128.3
129.74
118.67
99.56
78.17
59.58
45.09
35.33
29.8
27.48
27.68
30.87
38.26
50.46
67.41
88.21
111.41
135
157.1
176.58
193.8
210.12
226.74
244.86
265.28
288.36
313.17
337.34
357.28
369.27
370.3
358.82
335.55
303.31
266.34
228.61
192.76
159.69
129.1
100.4
73.45
49.08
28.84
14.17
5.35
1.2
-0.52
-2.1
-4.72
-8.19
-11.27
-12.86
-12.76
-11.92
-11.8
-13.39
-16.53
-19.83
-21.23
-18.74
-11.21
1.14
16.7
32.77
46.37
55.25
58.76
57.95
55.13
52.6
51.64
52.13
52.88
52.62
50.77
47.55
43.5
38.9
33.45
26.55
18.02
8.57
-0.2
-6.46
-8.98
-7.78
-4.19
-0.27
2.07
2.03
0.17
-1.89
-2.27
0.07
4.79
10.23
14.18
14.87
11.73
5.37
-2.96
-12.08
-21.31
-30.32
-38.69
-45.65
-50.26
-52.03
-51.67
-51.09
-52.62
-57.68
-65.69
-73.89
-78.4
-76.02
-65.62
-48.64
-28.18
-7.67
10.56
25.88
39.22
52.37
67.01
83.98
102.88
122.09
139.34
152.57
160.95
165.46
168.64
173.66
182.99
197.46
216.19
237.2
258.07
276.32
289.52
295.52
293.12
282.98
267.85
251.94
239.5
233.1
232.73
236.1
240.04
242.01
241.03
237.51
232.35
226.09
218.5
208.89
196.64
181.7
164.61
146.25
127.47
108.77
90.25
71.71
53
34.06
14.95
-4.41
-24.33
-45.21
-67.27
-90.29
-113.81
-137.26
-160.46
-183.85
-208.37
-235.09
-264.58
-296.6
-330.25
-364.24
-397.57
-429.92
-461.68
-493.86
-527.97
-565.81
-609.03
-658
-710.57
-761.29
-802.07
-824.58
-823.33
-798.15
-754.34
-700.77
-646.3
-596.92
-554.62
-518.38
-486.14
-456.42
-428.69
-402.52
-376.76
-349.27
-317.63
-280.41
-237.97
-192.52
-147.38
-105.57
-68.7
-36.49
-7.08
22.01
52.71
85.53
119.53
152.76
183.34
210.26
233.89
255.87
278.62
304.68
335.88
372.51
412.73
452.42
485.97
507.75
513.82
503.24
478.25
443.4
403.94
364.37
327.6
294.79
265.7
239.25
213.93
188.39
161.86
134.42
106.86
80.07
54.55
30.19
6.7
-15.73
-36.11
-52.89
-64.74
-71.45
-74.25
-75.34
-76.85
-79.84
-83.9
-87.55
-89.09
-87.34
-82.08
-73.82
-63.53
-52.28
-41.11
-30.89
-22.13
-14.75
-8
-0.62
8.62
20.21
33.52
47.04
59.12
68.79
76.09
81.76
86.52
90.45
92.96
93.26
91.08
87.02
82.33
78.28
75.46
73.49
71.33
67.87
62.65
56.17
49.73
44.82
42.53
42.99
45.39
48.42
50.82
52.01
52.21
52.27
53.19
55.62
59.57
64.39
69.08
72.67
74.58
74.76
73.73
72.36
71.6
72.18
74.19
76.87
78.52
76.72
69.08
54.08
31.88
4.57
-24.29
-50.73
-71.48
-84.77
-90.45
-89.56
-83.68
-74.45
-63.33
-51.46
-39.66
-28.24
-16.99
-5.38
7.12
20.58
34.43
47.66
59.31
68.84
76.43
82.76
88.54
94.18
99.56
104.28
107.95
110.41
111.69
111.69
109.96
105.73
98.27
87.38
73.61
58.04
41.66
24.93
7.8
-9.57
-26.11
-39.68
-47.77
-48.78
-42.96
-32.48
-20.43
-9.48
-0.94
5.28
10.02
14.05
17.79
21.48
25.68
31.42
39.88
51.63
66.08
81.37
94.83
103.8
106.58
103.06
94.86
84.82
75.9
69.98
67.07
65.29
61.7
53.54
39.39
19.51
-4.68
-31.42
-59.56
-88.83
-119.66
-152.59
-187.81
-225.01
-263.14
-300.12
-332.43
-355.46
-364.71
-357.64
-335.17
-301.56
-262.64
-223.37
-185.94
-149.93
-113.98
-77.81
-43.38
-14.07
7.13
19.31
24.08
24.73
24.76
26.7
31.87
40.61
52.62
67.02
82.36
96.93
109.23
118.37
124.14
126.68
126.02
122.07
115.06
106.37
98.6
95.02
97.99
107.5
120.82
133.67
142.34
145.67
145.5
145.29
147.94
153.98
161.54
167.8
170.67
169.76
165.96
160.13
151.93
139.68
121.3
95.64
63.14
25.84
-13.61
-53.13
-91.89
-130.38
-170.2
-213.41
-261.86
-316.07
-374.14
-431.33
-480.54
-514.13
-526.37
-515.41
-483.75
-437.04
-381.78
-323.31
-264.92
-208.49
-155.34
-106.79
-63.59
-24.75
13.09
54.95
105.2
164.87
230.32
293.73
345.39
376.79
383.21
365.26
329.25
286.06
248.47
227.33
227.55
245.5
269.73
285.18
279.66
249.46
200.99
147.26
101.35
70.02
51.09
35.91
14.48
-19.9
-68.69
-128.98
-195.58
-262.16
-321.55
-365.88
-388.13
-385.14
-360.36
-324.65
-293.42
-281.2
-295.88
-335.63
-389.77
-442.83
-480.27
-493.05
-479.69
-445.32
-398.65
-348.36
-300.26
-256.4
-215.92
-177.24
-139.57
-103.46
-69.69
-37.93
-6.09
28.9
69.44
115.74
165.41
214.01
256.43
288.41
307.69
314.68
312.63
306.89
303.2
305.26
312.76
320.97
322.34
309.59
279.15
233.02
178.19
124.11
79.22
48.49
32.53
28.71
33.02
41.8
52.73
64.49
75.99
85.77
92.02
93.28
89.16
80.64
69.58
57.75
45.83
33.18
18.61
1.47
-17.36
-35.48
-49.75
-57.89
-59.52
-56.63
-52.67
-50.77
-52.36
-56.67
-61.41
-63.83
-62.3
-56.33
-46.98
-36.27
-25.74
-16.09
-7.42
0.37
7.21
12.21
15.13
15.95
14.85
13.39
13.84
17.97
26.18
37.31
48.31
57.26
63.13
65.83
67.67
72.49
84.04
104.87
135.61
173.91
217.43
263.05
299.14
315.4
307.42
279.22
240.81
209.92
190.18
181.84
184.83
199.24
222.86
252.95
283.97
308.3
318.93
311.19
286.76
251.19
210.76
170.98
135.2
104.19
77.33
53.92
33.03
15.31
1.31
-9.3
-16.95
-21.73
-23.86
-23.83
-22.47
-21.38
-21.36
-23.07
-27.06
-33.45
-41.95
-52.29
-64.35
-78.11
-93.74
-110.81
-128.62
-146.47
-163.76
-180.36
-196.78
-214.06
-233.39
-255.57
-280.45
-307.07
-334.05
-360.12
-384.68
-407.93
-430.79
-454.68
-481.38
-512.8
-550.3
-593.44
-638.93
-680.42
-709.68
-719.27
-705.29
-669.02
-616.4
-555.65
-494.21
-436.67
-384.53
-337.32
-294.21
-254.86
-219.26
-187.04
-156.92
-127.05
-95.79
-62.59
-28.21
5.68
37.46
66.38
92.92
118.48
144.65
172.41
201.65
231.34
259.87
285.8
308.43
328.03
345.92
364.37
386.15
413.44
446.39
482.13
514.97
538.26
547.12
540.69
522.47
498.58
474.69
453.61
434.87
416.39
396.73
376.6
358.46
344.73
336.05
330.93
327.03
322.92
319.01
316.54
315.71
314.3
308.02
292.8
267.68
236.2
205.03
180.61
165.64
157.53
149.93
136.09
112.36
79.65
42.29
5.29
-28.17
-57.65
-84.79
-111.74
-139.86
-169.18
-198.87
-227.9
-255.79
-282.54
-308.81
-335.55
-363.58
-393.48
-425.81
-461.66
-502.59
-549.71
-601.93
-654.78
-700.53
-730.27
-737.06
-718.78
-679.07
-625.75
-567.65
-511.19
-459.33
-412.3
-369.24
-329.53
-293.16
-260.23
-230.07
-201.29
-171.21
-138.17
-102.48
-66.21
-32.1
-1.9
23.96
47.03
69.31
94.78
125.58
161.03
197.97
232.67
262.96
288.15
310.34
331.77
357.8
391.52
432.43
476.75
519.84
558.98
593.02
625.18
659.52
704.79
766.41
843.06
925.71
1000.75
1055.48
1080.79
1077.12
1016.86
890.32
709.32
505.22
312.31
151.81
39.09
-38.39
-91.65
-128.23
-148.46
-153.54
-147.36
-136.1
-126.18
-121.36
-123.68
-130.6
-139.66
-145.61
-145.46
-139.52
-131.18
-124.73
-122.87
-127.18
-135.69
-146.18
-154.63
-158.38
-157.04
-152.47
-147.52
-144.42
-144.8
-147.91
-152.49
-156.14
-157
-154.48
-149.47
-143.9
-139.76
-138.8
-141.32
-146.83
-153.93
-161.37
-168.4
-175.19
-182.43
-190.79
-200.69
-212.25
-226.16
-243.77
-266.24
-292.75
-319.22
-338.21
-340.93
-320.47
-274.53
-206
-121.17
-27
70.72
167.1
256.63
332
385.06
409.74
405.23
377.25
336.29
293.58
257.14
229.83
210.06
194.06
178.61
162.29
145.35
128.57
112.37
96.17
78.85
59.3
37.13
12.96
-12.05
-37.19
-63.21
-91.97
-124.88
-160.63
-193.95
-216.75
-221.72
-206.73
-176.97
-143.47
-118.22
-108.82
-115.73
-133.79
-156.56
-180.38
-204.73
-229.53
-251.7
-264.45
-260.43
-237.46
-202.08
-167.88
-149.02
-152.66
-175.08
-204.05
-225.95
-233.36
-227.84
-217.05
-208.44
-204.06
-200.01
-190.95
-175.63
-159.25
-151.02
-158.35
-181.5
-212.36
-238.27
-248.43
-239.13
-214.9
-185.22
-159.37
-141.99
-132.06
-125.28
-117.85
-108.94
-100.85
-96.66
-97.24
-100.07
-100.39
-94.45
-82.24
-67.85
-57.02
-53
-53.82
-52.73
-41.81
-16.11
23.98
73.37
126.04
178.17
229.25
280.49
332.32
382.77
427.98
464.17
488.78
500.59
498.79
483.07
454.77
418.28
380.81
349.95
329.91
318.92
310.23
295.93
271.77
238.96
202.57
167.51
135.35
104.09
70.68
34.6
-0.69
-29.05
-44.96
-46.96
-38.71
-27.75
-22.74
-30.44
-53.89
-92.17
-141.61
-197.41
-255.09
-310.71
-360.67
-401.41
-430.3
-447.33
-456.46
-464.9
-479.95
-504.86
-536.24
-565.12
-580.81
-576.07
-550.3
-509.19
-461.17
-413.27
-368.7
-327.14
-287.02
-247.72
-210.39
-177.03
-148.83
-125.27
-104.35
-83.73
-62.16
-40.13
-19.69
-3.5
6.43
9.53
6.89
0.81
-6.02
-11.57
-15
-16.58
-17.18
-17.6
-18.16
-18.62
-18.48
-17.16
-14.49
-10.76
-6.56
-2.55
0.82
3.3
4.77
5.12
4.77
4.27
4.41
6.21
10.69
18.65
30.14
44.24
59.24
74.32
89.08
103.81
119.49
137.5
158.95
183.86
210.86
237.33
262.48
286
308.22
330.53
355.6
387.18
428.87
482.02
544
610.8
674.12
723
747.34
741.83
708.73
657.75
602.9
557.75
535.12
538.81
562.33
592.3
614.38
619.47
606.15
579.23
520.25
423.25
294.98
153.7
21.07
-87.62
-165.77
-214.11
-238.39
-247.3
-245.4
-236.18
-223.81
-210.72
-198.07
-185.8
-173.84
-163.03
-155.69
-151.12
-148.63
-150.04
-154.36
-160.82
-168.35
-176.61
-186.08
-199.07
-215.48
-234.37
-257.33
-284.51
-314.89
-346.45
-377.72
-407.77
-438.53
-471.64
-508.53
-553.27
-605.72
-660.16
-706.41
-733.99
-735.31
-711.11
-667.75
-592.26
-488.23
-371.01
-259.99
-168.44
-107.46
-68.91
-45.71
-32.94
-26.37
-24.72
-26.11
-27.35
-25.28
-18.39
-6.31
8.33
23.34
37.95
49.72
58.11
64.42
70.56
77.62
86.25
94.98
102.6
108.89
112.55
113.4
112.41
110.94
109.9
110.03
110.79
111.8
113.12
114.2
114.89
115.53
116.71
118.93
122.73
128.06
134.84
142.9
151.59
160.2
168.27
175.72
182.91
190.6
199.39
209.52
220.65
231.94
242.69
253.11
264.62
279.12
297.47
318.15
337.21
349.82
352.66
345.5
330.58
310.44
285.8
255.49
218.39
175.88
132.56
94.27
64.52
42.08
21.61
-2.77
-33.39
-67.06
-96.76
-115.69
-120.88
-114.31
-101.04
-85.74
-70.25
-53.4
-32.7
-6.9
22.65
51.99
76.2
91.45
96.65
93.71
86.43
78.8
73.44
70.97
70.67
71.57
73.42
76.89
82.89
91.8
102.96
114.96
126.3
136.01
143.77
149.72
154.1
157.09
158.83
159.53
159.43
158.79
157.65
155.87
153.14
149.35
144.83
140.29
136.57
134.34
133.8
134.61
135.94
136.58
135.21
130.66
122.17
109.38
92.31
71.15
45.83
16.1
-18.31
-56.99
-98.14
-138.47
-174.1
-201.59
-219.12
-227.53
-229.79
-230.45
-234.05
-244
-262
-287.73
-318.09
-346.42
-363.82
-361.85
-336.88
-292.72
-240.2
-193.47
-164.55
-158.68
-169.69
-184.37
-187.09
-168.87
-132.03
-86.55
-42
-3.04
30.24
59.4
84.76
104.63
116.7
119.94
115.4
106.26
96.24
87.4
79.22
68.35
50.19
20.43
-19.23
-63.13
-102.11
-126.62
-130.06
-110.4
-70.4
-16.1
44.47
102.85
150.56
180.18
186.4
167.41
125.69
67.47
1.19
-64.29
-120.41
-160.06
-178.13
-173.17
-149.69
-118.2
-93.07
-87.62
-108.34
-151.16
-202.24
-242.82
-256.9
-238.16
-192.49
-135.49
-85.95
-58.78
-60.63
-89.97
-140.08
-202.86
-271.25
-338.68
-397.66
-439.42
-456.01
-443.72
-405.78
-351.92
-294.93
-246.02
-211.02
-189.74
-177.93
-170.13
-162.24
-152.49
-141.12
-129.33
-118.46
-109.25
-101.71
-95.23
-89.03
-82.42
-75.07
-66.86
-57.95
-48.8
-39.9
-31.83
-24.81
-18.78
-13.55
-8.81
-4.11
0.96
6.53
12.43
18.13
23.29
27.81
31.86
35.93
41.17
48.55
58.45
70.54
83.51
96.55
109.24
121.63
134.2
149
167.62
190.47
216.67
243.38
269.27
293.95
317.49
340.51
366.67
399.11
439.49
487.07
536.71
584.76
627.49
660.69
681.19
692.03
697.64
702.11
707.42
709.86
709.7
708.43
707
706.21
711.07
723.62
741.64
758.94
763.91
754.18
733.18
706.53
642.83
525.6
357.03
160.57
-2.14
-121.48
-203.49
-257.09
-296.87
-328.94
-350.96
-360.65
-358.28
-347.73
-339.59
-337.55
-341.74
-351.24
-363.83
-373.38
-375.21
-367.37
-351.51
-335.09
-320.93
-309.7
-301.62
-296.08
-290.05
-281.23
-268.85
-254.31
-242.71
-236.36
-236.21
-242.76
-255.52
-272.37
-291.14
-309.94
-328.1
-347
-367.17
-389.09
-413.77
-442.41
-475.94
-514.69
-557.58
-601.6
-642.05
-672.56
-687.15
-682.37
-658.35
-618.83
-569.69
-517.03
-465.62
-418.16
-375.65
-338.11
-305.22
-276.6
-251.68
-229.47
-208.68
-188.01
-166.54
-144.09
-121.36
-99.26
-78.71
-60.15
-43.45
-28.11
-13.55
0.53
14.1
26.83
38.35
48.43
57.11
64.68
71.52
77.93
84.09
90.09
96.01
102.03
108.36
115.19
122.53
130.19
137.84
145.24
152.43
159.85
168.26
178.43
190.84
205.38
221.48
238.33
255.32
272.37
289.98
309.05
330.64
355.77
385.21
419.07
456.32
494.36
529.1
555.87
570.74
571.88
560.14
538.63
511.48
482.4
453.76
426.45
400.37
375.2
350.99
328.34
308.14
291.04
276.86
264.17
250.54
233.1
209.65
179.57
144
105.28
65.98
27.83
-8.71
-44.06
-78.96
-113.73
-148.22
-182.4
-217.18
-254.72
-297.6
-346.88
-399.97
-449.89
-486.92
-502.21
-491.62
-457.43
-407.33
-350.78
-295.59
-245.94
-203.31
-168.32
-142.04
-125.35
-116.94
-112.12
-103.59
-84.31
-51.05
-6.43
41.91
84.26
112.49
122.67
115.44
94.61
65.15
31.63
-2.31
-33.5
-58.71
-75.09
-81.19
-78.1
-69.53
-60.31
-54.01
-51.31
-50.21
-47.85
-42.72
-35.37
-27.46
-19.87
-11.82
-1.74
11.07
25.24
37.89
46.84
52.39
57.3
64.81
75.95
88.29
97.18
98.75
92.31
80.89
69.52
62.48
61.3
64.49
68.9
71.68
71.67
69.55
66.94
65.23
64.65
64.31
62.87
59.37
53.8
46.89
39.5
32.09
24.52
16.3
7.02
-3.46
-14.95
-26.92
-38.52
-48.49
-55.43
-58.33
-57.17
-53.18
-48.4
-44.77
-43.18
-43.09
-43.11
-42.02
-39.56
-36.61
-34.48
-34.1
-35.48
-37.81
-40.06
-41.6
-42.37
-42.65
-42.69
-42.42
-41.5
-39.57
-36.57
-32.8
-28.82
-25.07
-21.87
-19.24
-17.18
-15.78
-15.07
-15.14
-15.91
-17.24
-18.84
-20.24
-20.73
-19.49
-15.87
-9.77
-1.95
6.1
12.77
17.08
19.11
19.89
20.69
22.21
24.2
25.49
24.66
20.69
13.48
3.89
-6.6
-16.54
-25.12
-32.48
-39.56
-47.19
-55.39
-62.9
-67.73
-68.21
-64.23
-57.52
-50.81
-46.3
-44.25
-42.82
-39.15
-31.08
-18.45
-3.12
12.03
24.49
33.06
37.94
40.12
40.71
40.58
40.36
40.64
41.97
44.76
49.1
54.73
61.07
67.46
73.24
77.82
80.7
81.64
80.75
78.49
75.52
72.33
69.11
65.74
62.02
57.99
53.98
50.4
47.51
45.18
43.02
40.65
38.02
35.44
33.42
32.32
32.1
32.37
32.64
32.59
32.29
32.13
32.55
33.75
35.57
37.58
39.28
40.39
40.91
41.02
40.94
40.74
40.41
39.94
39.44
39.21
39.64
41.22
44.38
49.44
56.4
64.84
73.95
82.62
90.04
95.95
100.9
105.87
111.69
118.55
125.84
132.67
138.26
142.3
144.5
144.08
139.38
128.12
108.37
79.48
42.76
1.16
-41.68
-82.71
-120.11
-153.54
-183.67
-211.53
-238.33
-265.55
-295.31
-330.05
-371.38
-418.21
-465.59
-505.06
-526.95
-524.08
-494.7
-443.46
-379.59
-313.42
-252.94
-201.98
-160.52
-126.28
-96.21
-67.11
-35.91
-0.08
41.34
86.56
130.88
168.09
193.01
203.33
200.5
188.72
173.16
158.39
147.41
141.18
138.37
135.38
127.05
108.71
78.7
40.24
1.13
-29.07
-43.2
-39.51
-21.99
2.18
26.24
46.53
62.67
75.87
86.83
94.99
99.06
98.32
93.52
86.61
79.65
73.79
68.93
64.12
58.27
50.8
41.76
31.62
21.19
11.38
3.12
-2.87
-6.32
-7.62
-7.7
-7.68
-8.4
-10.27
-13.19
-16.85
-20.92
-25.2
-29.66
-34.42
-39.57
-45.13
-50.92
-56.36
-60.62
-62.8
-62.46
-60.01
-56.56
-53.28
-50.6
-47.6
-42.24
-32.33
-16.62
4.5
29.04
54.36
78.17
99.19
117.11
131.97
143.63
151.68
155.83
156.42
154.53
151.48
148.12
144.47
139.96
133.93
126.31
117.79
109.45
102.42
97.44
94.83
94.63
96.69
100.67
105.86
111.07
114.71
115.26
111.59
103.33
90.92
75.27
57.57
38.96
20.37
2.52
-14.04
-28.91
-42
-53.86
-66.14
-81.84
-104.68
-137.79
-181.81
-233.42
-285.14
-326.89
-348.99
-345.67
-317.19
-269.72
-212.95
-156.59
-107.68
-69.46
-42.14
-24.32
-14.33
-10.49
-10.91
-13.19
-14.69
-13.39
-8.68
-1.54
5.92
11.59
14.19
13.57
10.38
5.51
-0.19
-6.04
-11.51
-16.18
-19.79
-22.18
-23.29
-23.12
-21.84
-19.98
-18.58
-19.09
-22.91
-30.64
-41.46
-53.16
-62.93
-68.52
-69.28
-66.38
-62.11
-58.73
-57.49
-58.36
-60.4
-62.5
-63.97
-64.62
-64.43
-63.19
-60.42
-55.53
-48.34
-39.33
-29.62
-20.6
-13.52
-9.26
-8.19
-10.14
-14.34
-19.44
-23.72
-25.67
-24.59
-20.89
-15.85
-10.81
-6.44
-2.36
2.5
9.1
17.59
27.16
36.52
44.52
50.77
55.52
59.42
63.05
66.76
70.62
74.42
77.93
80.9
83.32
85.4
87.71
90.81
95.06
100.22
105.53
110.11
113.43
115.62
117.24
118.91
120.78
122.39
122.89
121.5
117.96
112.59
106.17
99.37
92.53
85.49
77.88
69.26
59.25
47.65
34.4
19.68
4
-11.71
-26.18
-37.85
-45.48
-48.53
-47.12
-41.84
-33.47
-22.72
-10.17
3.65
18.42
33.42
47.55
59.81
69.78
77.85
84.89
91.76
98.87
106.56
114.36
121.44
127.3
132.23
136.99
142.02
146.79
149.69
149.23
143.45
130.54
109.45
80.28
44.24
3.31
-40.02
-87.18
-134.76
-176.53
-206.4
-221.59
-223.43
-215.55
-201.89
-185.5
-168.37
-151.02
-134.03
-118.23
-104.32
-92.61
-82.76
-74.18
-66.33
-58.75
-50.56
-41.45
-31.83
-22.37
-13.6
-5.63
1.56
8.02
13.9
19.65
25.36
30.53
34.68
37.46
38.92
39.19
38.45
37.23
36.4
36.54
37.71
39.43
41.07
42.35
42.92
42.31
40.96
40.12
40.98
43.81
47.79
51.57
54.18
54.84
52.25
46.89
40.77
35.76
31.94
26.91
16.56
1.87
-16.91
-40.87
-68.64
-96.58
-121.13
-141.22
-158.87
-177.68
-200.95
-231.35
-273.04
-325.68
-383.32
-436.15
-474.15
-490.3
-482.16
-452.05
-383.61
-279.56
-158.57
-43.62
52.18
128.05
187.55
231.55
256.71
258.19
230.79
177.39
109.74
44.05
-5.41
-30.97
-32.07
-13.56
16.92
48.88
75.11
93.86
107.21
119.62
133.03
146.46
156.05
156.79
142.44
110.59
64.97
13.88
-33.95
-73.16
-103.06
-126.92
-149.88
-177.06
-210.64
-247.99
-283.13
-309.51
-322.71
-321.64
-308.62
-288.22
-262.41
-235.58
-210.99
-190.11
-173.07
-159.69
-150.01
-144.29
-142.29
-142.55
-142.98
-140.67
-133.49
-121.17
-105.43
-89.16
-75.14
-64.85
-58.03
-53.52
-49.36
-44.01
-36.96
-28.89
-21.14
-14.98
-11
-8.84
-7.73
-6.47
-4.12
-0.35
4.47
9.54
14.03
17.49
20.01
21.95
23.91
26.41
29.63
33.31
37
40.27
42.99
45.47
48.3
52.18
57.65
64.8
73.25
82.35
91.52
100.5
109.62
119.59
131.26
145.2
161.42
179.32
198.01
216.64
234.77
252.51
270.39
289.25
310.07
333.8
361.05
391.39
422.74
451.27
472.1
480.85
475.24
455.89
426.04
390.18
352.47
315.58
280.6
247.71
216.9
188.56
163.38
141.89
124.16
109.6
97.25
86.1
75.37
64.73
54.24
44.18
34.79
26.11
17.87
9.67
1.2
-7.55
-16.28
-24.4
-31.37
-36.82
-40.74
-43.45
-45.49
-47.38
-49.45
-51.73
-53.95
-55.85
-57.25
-58.04
-58.1
-57.13
-54.79
-50.98
-46.15
-41.26
-37.42
-35.28
-34.52
-33.81
-31.42
-26.07
-17.77
-7.89
0.99
5.77
3.59
-7.19
-26.41
-51.62
-78.35
-101.01
-114.42
-115.69
-105.25
-86.58
-64.52
-43.1
-24
-6.5
11.16
30.44
51.08
71.25
88.81
102.44
111.93
117.46
118.66
114.24
103.28
85.63
62.73
37.67
14.29
-4.24
-16.55
-23.59
-28.24
-32.93
-40.51
-53.98
-76.02
-107.92
-148.26
-192.18
-231.7
-257.59
-259.68
-232.82
-178.64
-104.8
-21.75
61.15
138.1
207.15
268.5
325.29
377.72
421.99
451.79
461.54
449.44
418.54
375.46
311.5
227.45
131.33
36.11
-46.25
-109.34
-152.09
-176.39
-184.66
-183.18
-175.46
-165.33
-156.73
-152.9
-155.67
-165.12
-179.31
-196.26
-214.76
-232.06
-247.39
-262.37
-280.26
-303.67
-332.37
-361.84
-384.31
-391.4
-375.65
-335.03
-273.23
-197.8
-116.85
-37.32
35.29
95.73
138.54
159.58
156.91
132.79
94.19
51.43
14.93
-8.36
-17.49
-17.09
-14.78
-17.78
-29.78
-50.04
-74.85
-100.51
-125.31
-149.82
-175.31
-201.23
-225.08
-244.11
-258.36
-271.96
-291.55
-321.91
-361.89
-403.56
-434.87
-445.3
-430.66
-394.72
-346.61
-296.36
-250.84
-212.19
-179.08
-149.19
-121.25
-95.68
-73.75
-56.14
-42.23
-30.4
-18.96
-7
5.4
17.26
27.7
36.52
44.49
53.06
63.67
77.14
93.31
111.17
129.41
147.09
164.13
181.31
199.83
220.55
243.28
266.65
288.39
305.94
317.18
320.78
316.41
304.74
287.45
266.95
245.82
226.01
208.32
192.44
177.62
163.56
150.84
140.57
133.46
129.03
125.51
120.82
113.84
104.94
95.57
87.03
79.36
71.26
60.86
47.13
30.4
12.47
-4.5
-18.68
-28.88
-34.33
-34.65
-30.35
-23.08
-15.39
-9.12
-4.24
1.48
11.19
26.52
45.78
64.11
75.99
78.53
74
68.29
67.95
77.04
95.92
122.1
151.99
182.42
210.87
236.18
256.28
268.02
268.54
256.73
234.27
204.94
173.09
142.05
115.19
92.78
71.82
47.68
17.14
-18.81
-53.88
-77.87
-80.08
-51.22
9.3
91.51
177.57
248.24
289.78
297.86
277.4
223.08
140.18
42.26
-53.34
-132.99
-190.65
-226.18
-242.01
-241.46
-228.71
-206.94
-180.17
-152.68
-127.72
-106.25
-86.83
-67.11
-45.61
-22.51
1.68
25.33
46.14
62.13
72.6
78.36
80.82
80.98
79.02
74.77
67.96
58.34
46.03
31.84
16.87
1.6
-15.19
-29.86
-41.49
-50.07
-56.09
-60.24
-63.22
-65.91
-69.67
-76.34
-87.77
-105.97
-131.49
-163.33
-199.43
-237.08
-273.8
-307.95
-338.8
-366.47
-392.62
-419.39
-449.02
-482.72
-519.31
-554.33
-580.58
-590.29
-578.31
-545.11
-496.53
-441.83
-390.19
-347.65
-315.82
-292.81
-275.36
-260.78
-248.04
-236.91
-227.09
-217.5
-206.35
-191.81
-172.55
-148.14
-119.25
-87.44
-54.58
-22.37
8.18
37.07
65.38
94.92
127.27
162.97
200.93
238.71
273.46
303.37
328.53
350.37
370.46
389.46
406.71
420.87
430.62
434.58
430.33
413.59
379.15
323.58
248.84
164.4
85.57
28.44
3.01
8.79
35.39
67.08
89.31
93.16
76.31
41.18
-7.51
-64.55
-125.1
-184.62
-239
-284.9
-320.04
-342.94
-352.6
-348.64
-332.2
-306.62
-276.94
-248.32
-223.5
-201.39
-177.82
-148.68
-112.76
-73.13
-35.7
-5.87
14.11
26.4
35.95
47.54
63.41
82.27
100.55
114.7
123.43
128.45
133.77
144.04
162.52
190.24
225.99
267.11
310.07
350.76
384.7
407.68
417.34
414.52
403.79
391.84
384.52
383.94
387.28
388.41
381.43
364.05
338.94
312.44
291.24
279.06
275
274.03
269.31
254.84
227.49
187.31
136.7
78.86
16.96
-45.66
-104.46
-153.11
-184.37
-193.14
-180.12
-153.15
-124.8
-107.47
-107.95
-124.98
-150.65
-175.01
-190.21
-192.99
-184.07
-166.1
-142.3
-115.93
-90.39
-68.86
-53.27
-43.32
-36.47
-29.38
-19.99
-8.93
1.11
7.22
8.44
6.09
3.18
2.71
6.4
14.26
25.29
38.5
53.42
69.99
88.04
106.64
123.93
137.61
145.81
147.87
145.04
140.08
136.31
136.34
140.95
148.8
157.07
162.68
163.71
160.04
153.09
145.06
137.82
132.46
129.16
127.41
126.06
123.02
115.44
100.13
74.96
39.44
-4.65
-53.63
-102.76
-147.72
-186.12
-218.16
-246.65
-275.07
-306.98
-344.18
-385.1
-424.13
-452.67
-461.74
-445
-401.13
-333.49
-250.99
-165.59
-88.75
-27.99
15.14
44.87
69.37
97.51
136.4
186.5
240.78
287.35
314.45
315.27
290.3
246.67
187.21
121.05
59.42
11.06
-20.99
-38.51
-44.42
-41
-30.36
-15.86
-1.13
8.86
9.51
-1.52
-23.48
-53.15
-86.36
-120.11
-153.7
-187.49
-223.26
-263.03
-308.01
-358.06
-411.92
-467.37
-521.03
-567.86
-600.91
-613.69
-602.82
-569.48
-519.33
-460.62
-401.33
-346.88
-299.21
-257.37
-219.63
-185.09
-153.74
-125.68
-100.22
-75.73
-50.3
-22.66
7.33
38.66
69.44
98.01
123.58
146.44
167.64
188.34
209.28
230.45
251.31
271.24
290.18
308.75
327.84
347.87
368.02
386.21
399.58
405.47
402.41
390.55
371.69
348.67
324.74
302.84
285
272.01
263.31
257.36
252.27
246.62
239.82
232.17
224.42
217.23
210.82
205.08
199.74
194.61
189.55
184.24
178.25
171.17
163.03
154.54
146.8
140.73
136.33
132.58
128.09
122.18
115.78
111.31
111.74
119.08
133.26
151.89
171.09
186.55
194.78
193.62
182.42
161.92
134.05
101.69
68.06
36.12
7.95
-15.43
-33.72
-46.73
-54.07
-55.18
-49.82
-38.8
-24.15
-8.89
3.9
12.08
15.15
14.38
11.86
9.43
7.56
5.13
-0.24
-10.99
-28.65
-53.25
-83.31
-115.91
-146.54
-169.37
-178.28
-168.93
-141.2
-100.42
-56.39
-19.92
0.95
4.03
-7.19
-26.25
-47.22
-67.41
-87.77
-111.24
-140.01
-173.25
-206.25
-231.72
-242.69
-235.47
-211.87
-178.88
-146.1
-121.85
-110.31
-110.85
-119.83
-133.56
-150.27
-170.4
-194.73
-222.65
-251.24
-276.31
-294.31
-304.16
-307.58
-308.24
-310.57
-318
-332.36
-354.14
-383.37
-420.15
-464.38
-514.3
-565.14
-609.06
-636.8
-640.88
-618.68
-573.7
-514.17
-449.87
-388.71
-334.69
-288.11
-247.14
-209.69
-174.51
-141.28
-110.06
-80.71
-52.98
-26.73
-2.25
20.04
39.48
56.14
71.12
86.3
103.28
121.8
138.73
148.5
145.19
125.48
90.96
48.42
7.6
-22.39
-36.48
-34.96
-22.41
-5.21
11.28
24.29
33.54
40.16
45.44
50.06
54.17
57.87
61.46
65.7
71.52
79.57
90.03
103.13
119.35
139.52
163.98
191.12
216.55
233.62
235.86
219.85
187.3
144.63
100.31
61.62
32.37
13.04
1.92
-3.53
-6.25
-9.83
-18.21
-34.12
-57.15
-82.82
-104.01
-114.42
-111.86
-99.36
-83.26
-69.52
-60.55
-54.42
-46.8
-33.83
-14.31
10.07
36.1
60.94
83.15
102.84
120.99
138.55
156.16
174.31
193.99
216.86
244.5
276.93
