0
0
0
0
0
0
0
0
0
0
0
0.01
0.01
0
-0.03
-0.05
-0.05
0
0.13
0.36
0.66
1.01
1.37
1.72
2.06
2.4
2.79
3.24
3.8
4.42
5.06
5.66
6.2
6.68
7.15
7.68
8.31
9.14
10.09
11.04
11.88
12.56
13.14
13.76
14.65
15.96
17.91
20.32
22.9
25.38
27.58
29.57
31.68
34.32
37.81
42.54
48.15
54.1
59.83
64.97
69.58
74.14
79.34
85.71
93.76
103
112.62
121.73
129.77
136.75
143.3
150.75
157.77
166.64
177.95
191.79
206.97
220.57
228.25
225.36
208.53
176.87
132.76
80.05
23.07
-34.94
-92.44
-149.16
-205.23
-260.37
-313.74
-363.87
-409.83
-450.91
-486.5
-515.74
-537.23
-549.22
-549.96
-538.37
-514.21
-478.67
-433.88
-382.45
-327.02
-269.84
-212.63
-156.66
-102.95
-52.37
-5.9
35.58
71.43
101.35
125.5
144.38
158.69
169.15
176.37
180.75
182.57
182.07
179.51
175.23
169.65
163.18
156.15
148.81
141.3
133.69
126.02
118.33
110.69
103.16
95.8
88.68
81.83
75.25
68.95
62.95
57.25
51.86
46.78
42.03
37.59
33.45
29.61
26.07
22.81
19.83
17.11
14.67
12.48
10.54
8.83
7.35
6.07
4.97
4.05
3.27
2.62
2.09
1.65
1.3
1.01
0.79
0.61
0.48
0.37
0.3
0.24
0.21
0.19
0.18
0.19
0.21
0.23
0.26
0.29
0.33
0.37
0.42
0.46
0.51
0.56
0.61
0.66
0.72
0.78
0.85
0.92
1
1.08
1.18
1.29
1.41
1.55
1.7
1.87
2.06
2.27
2.5
2.76
3.05
3.37
3.71
4.09
4.5
4.95
5.43
5.97
6.55
7.17
7.82
8.49
9.15
9.83
10.54
11.3
12.13
13.04
14.04
15.1
16.2
17.32
18.45
19.6
20.75
21.87
22.87
23.61
23.93
23.64
22.6
20.74
18.1
14.77
10.86
6.54
1.91
-2.91
-7.85
-12.77
-17.45
-21.62
-24.98
-27.33
-28.64
-29.1
-29.09
-29.01
-29.14
-29.56
-30.06
-30.34
-30.12
-29.33
-28.23
-27.28
-26.97
-27.61
-29.08
-30.96
-32.65
-33.69
-33.94
-33.64
-33.3
-33.46
-34.58
-36.96
-40.75
-45.69
-50.93
-54.83
-55.33
-50.6
-40.02
-24.66
-7.04
9.78
23.39
32.85
38.73
42.37
44.98
47.02
48.18
48.02
46.41
43.83
41.13
38.95
37.42
36.05
34.12
31.08
27
22.51
18.47
15.61
13.99
13.31
12.9
12.15
10.75
8.84
6.83
5.19
4.2
3.82
3.73
3.43
2.47
0.55
-2.27
-5.67
-9.13
-12.2
-14.66
-16.57
-18.24
-20.09
-22.53
-25.79
-29.88
-34.54
-39.18
-43.02
-45.2
-45.02
-42.13
-36.68
-29.16
-20.34
-11.01
-1.87
6.59
14.08
20.51
25.92
30.36
33.87
36.4
37.92
38.42
38.03
36.95
35.35
33.33
30.88
28
24.78
21.48
18.42
15.86
13.82
12.08
10.27
8.06
5.27
1.92
-1.83
-5.72
-9.57
-13.25
-16.74
-20.13
-23.54
-27.19
-31.32
-36.2
-41.99
-48.62
-55.7
-62.55
-68.27
-72.04
-73.38
-72.22
-68.98
-64.36
-59.1
-53.82
-48.86
-44.3
-39.97
-35.65
-31.01
-25.78
-19.76
-12.8
-4.89
3.91
13.41
23.36
33.41
43.18
52.29
60.4
67.26
72.69
76.57
78.8
79.31
78.07
75.17
70.8
65.28
59.04
52.54
46.21
40.36
35.06
30.11
25.15
19.82
13.88
7.4
0.63
-6.02
-12.08
-17.06
-20.45
-21.83
-20.96
-17.96
-13.37
-7.94
-2.38
2.87
7.7
12.18
16.29
19.79
22.31
23.58
23.59
22.66
21.29
19.9
18.7
17.62
16.49
15.15
13.54
11.69
9.69
7.61
5.45
3.21
0.88
-1.48
-3.78
-5.9
-7.77
-9.37
-10.84
-12.41
-14.35
-16.84
-19.93
-23.53
-27.38
-31.08
-34.19
-36.21
-36.66
-35.25
-31.93
-26.94
-20.8
-14.12
-7.52
-1.44
3.83
8.13
11.39
13.59
14.74
15.01
14.7
14.24
14.02
14.27
14.96
15.76
16.25
16.13
15.36
14.16
12.85
11.69
10.69
9.63
8.24
6.3
3.81
0.89
-2.22
-5.34
-8.35
-11.23
-14.11
-17.13
-20.46
-24.17
-28.03
-31.62
-34.31
-35.47
-34.73
-32.02
-27.56
-21.76
-15.12
-8.08
-1.09
5.47
11.25
16.04
19.77
22.55
24.62
26.18
27.36
28.18
28.52
28.31
27.46
25.97
23.92
21.44
18.76
16.13
13.76
11.75
10
8.26
6.28
3.88
1.09
-1.89
-4.78
-7.39
-9.69
-11.8
-13.95
-16.32
-19.04
-22.14
-25.62
-29.41
-33.34
-37.06
-40.03
-41.53
-40.93
-37.81
-32.16
-24.45
-15.44
-5.99
3.06
11.13
17.83
22.96
26.4
28.13
28.21
26.83
24.31
21.04
17.5
14.08
11.07
8.63
6.81
5.68
5.27
5.61
6.66
8.19
9.83
11.13
11.81
11.78
11.2
10.28
9.16
7.84
6.2
4.16
1.75
-0.85
-3.36
-5.61
-7.58
-9.52
-11.77
-14.73
-18.64
-23.48
-28.89
-34.17
-38.44
-40.85
-40.83
-38.28
-33.57
-27.38
-20.48
-13.41
-6.47
0.21
6.54
12.32
17.33
21.37
24.39
26.55
28.05
29.06
29.6
29.63
29.11
28.08
26.64
24.99
23.25
21.55
19.99
18.63
17.43
16.27
14.91
13.15
10.89
8.2
5.3
2.45
-0.17
-2.5
-4.65
-6.79
-9.16
-12.01
-15.56
-19.93
-25
-30.4
-35.45
-39.31
-41.24
-40.77
-37.89
-33.02
-26.91
-20.3
-13.8
-7.72
-2.1
3.12
7.97
12.34
16.02
18.83
20.68
21.62
21.83
21.5
20.78
19.84
18.8
17.73
16.69
15.7
14.7
13.67
12.58
11.46
10.35
9.19
7.89
6.34
4.46
2.32
0.01
-2.39
-4.9
-7.63
-10.72
-14.29
-18.3
-22.61
-26.88
-30.67
-33.44
-34.66
-33.94
-31.15
-26.52
-20.52
-13.8
-6.89
-0.17
6.13
11.85
16.73
20.51
22.96
24.06
24
23.16
21.93
20.56
19.16
17.68
16.07
14.32
12.56
10.91
9.46
8.16
6.79
5.15
3.11
0.72
-1.81
-4.25
-6.47
-8.53
-10.65
-13.05
-15.86
-19.05
-22.45
-25.82
-28.84
-31.15
-32.28
-31.82
-29.5
-25.35
-19.76
-13.36
-6.83
-0.69
4.73
9.26
12.77
15.12
16.23
16.16
15.13
13.57
11.88
10.37
9.12
8.04
6.89
5.48
3.76
1.82
-0.06
-1.61
-2.61
-3.03
-3.07
-3.03
-3.24
-4
-5.51
-7.88
-11.2
-15.36
-20.04
-24.61
-28.24
-30.1
-29.6
-26.65
-21.59
-15.13
-8.09
-1.21
5
10.3
14.68
18.22
20.96
22.82
23.68
23.46
22.36
20.84
19.57
19.12
19.73
21.18
22.87
24.18
24.66
24.31
23.48
22.77
22.76
23.82
26.04
29.12
32.39
34.82
35.29
32.8
26.91
17.94
7.04
-4.04
-13.47
-19.93
-23
-23.28
-22.04
-20.63
-19.98
-20.18
-20.59
-20.27
-18.46
-14.95
-10.22
-5.17
-0.79
2.15
3.35
2.89
1.02
-1.95
-5.78
-10.19
-14.81
-19.07
-22.31
-23.99
-23.98
-22.69
-20.95
-19.71
-19.65
-20.83
-22.84
-25.04
-26.95
-28.52
-30.12
-32.33
-35.59
-39.88
-44.7
-49.16
-52.25
-53.17
-51.39
-46.87
-39.83
-30.79
-20.36
-9.26
1.82
12.19
21.27
28.64
34.11
37.75
39.79
40.58
40.41
39.53
38.13
36.35
34.28
31.95
29.32
26.24
22.62
18.45
13.88
9.16
4.5
-0.01
-4.44
-8.94
-13.67
-18.69
-23.93
-29.31
-34.78
-40.43
-46.41
-52.94
-60.13
-67.87
-75.7
-82.73
-87.8
-89.66
-87.31
-80.26
-68.67
-53.25
-35.06
-15.32
4.83
24.31
42.25
57.97
71.06
81.37
88.91
93.83
96.31
96.61
95.1
92.31
88.83
85.2
81.69
78.32
74.91
71.25
67.23
62.86
58.26
53.58
48.89
44.22
39.53
34.74
29.79
24.66
19.4
14.11
8.96
4.01
-0.73
-5.4
-10.16
-15.14
-20.34
-25.64
-30.78
-35.47
-39.36
-42.07
-43.19
-42.41
-39.61
-34.99
-28.99
-22.2
-15.16
-8.26
-1.71
4.36
9.82
14.49
18.2
20.84
22.46
23.21
23.34
23.09
22.64
22.06
21.41
20.68
19.92
19.18
18.51
17.93
17.34
16.62
15.58
14.16
12.36
10.3
8.14
5.98
3.88
1.79
-0.4
-2.8
-5.53
-8.68
-12.28
-16.32
-20.68
-25.15
-29.46
-33.28
-36.27
-38.08
-38.38
-36.92
-33.61
-28.6
-22.29
-15.26
-8.15
-1.53
4.21
8.92
12.64
15.47
17.59
19.08
19.97
20.22
19.8
18.72
17.09
15.09
13.02
11.11
9.57
8.42
7.57
6.79
5.84
4.55
2.9
1.02
-0.91
-2.78
-4.59
-6.45
-8.54
-10.99
-13.88
-17.24
-20.99
-24.92
-28.64
-31.59
-33.18
-32.97
-30.82
-26.97
-21.94
-16.27
-10.47
-4.88
0.28
4.82
8.61
11.55
13.67
15.08
15.94
16.37
16.43
16.12
15.43
14.37
13
11.45
9.9
8.52
7.49
6.86
6.64
6.68
6.87
7
6.91
6.37
5.15
3.11
0.26
-3.16
-6.79
-10.22
-13.21
-15.68
-17.6
-18.89
-19.35
-18.74
-16.92
-13.99
-10.2
-5.9
-1.39
3.13
7.51
11.6
15.19
18.14
20.33
21.82
22.67
22.97
22.81
22.27
21.46
20.47
19.32
17.96
16.34
14.47
12.5
10.63
9.02
7.71
6.61
5.61
4.63
3.6
2.49
1.16
-0.56
-2.77
-5.47
-8.47
-11.6
-14.75
-17.9
-21.14
-24.47
-27.76
-30.78
-33.16
-34.52
-34.52
-32.9
-29.61
-24.84
-19.07
-12.96
-7.11
-1.93
2.49
6.23
9.43
12.13
14.28
15.76
16.52
16.58
16.04
15.07
13.91
12.76
11.77
10.97
10.22
9.33
8.16
6.74
5.3
4.1
3.31
2.86
2.51
1.94
1
-0.28
-1.71
-3.09
-4.34
-5.59
-7.06
-9.02
-11.61
-14.8
-18.4
-22.11
-25.61
-28.58
-30.75
-31.85
-31.67
-30.05
-26.95
-22.49
-17.07
-11.2
-5.48
-0.42
3.76
7.07
9.75
12.05
14.12
15.96
17.42
18.32
18.59
18.36
17.84
17.27
16.77
16.35
15.97
15.52
15
14.39
13.64
12.59
11.05
8.95
6.42
3.81
1.49
-0.27
-1.52
-2.55
-3.69
-5.2
-7.11
-9.4
-11.99
-14.91
-18.22
-21.92
-25.9
-29.87
-33.39
-35.96
-37.03
-36.25
-33.51
-29.13
-23.74
-18.1
-12.79
-8.08
-3.92
-0.19
3.16
5.98
8.08
9.37
9.98
10.14
10.03
9.7
9.13
8.29
7.31
6.39
5.72
5.35
5.17
4.98
4.55
3.65
2.14
-0.01
-2.7
-5.6
-8.33
-10.58
-12.3
-13.84
-15.76
-18.64
-22.75
-27.93
-33.64
-39.07
-43.41
-45.9
-46.01
-43.49
-38.5
-31.63
-23.82
-16.1
-9.26
-3.58
1.23
5.84
10.94
16.8
23.2
29.43
34.6
37.98
39.29
38.72
36.77
34.08
31.17
28.4
25.98
24.01
22.59
21.71
21.3
21.11
20.84
20.12
18.72
16.54
13.68
10.41
7.03
3.77
0.71
-2.31
-5.6
-9.48
-14.03
-18.95
-23.55
-27
-28.59
-28.03
-25.54
-21.72
-17.26
-12.74
-8.47
-4.54
-0.92
2.42
5.44
8.07
10.23
11.89
13.12
13.98
14.53
14.75
14.57
13.91
12.78
11.35
9.83
8.44
7.27
6.2
5.04
3.56
1.72
-0.42
-2.65
-4.81
-6.83
-8.72
-10.65
-12.83
-15.51
-18.84
-22.81
-27.16
-31.4
-34.89
-37.08
-37.58
-36.29
-33.36
-29.07
-23.81
-18.01
-12.09
-6.42
-1.23
3.37
7.43
11.04
14.2
16.86
18.89
20.21
20.82
20.78
20.23
19.27
18
16.5
14.9
13.27
11.71
10.22
8.79
7.32
5.67
3.7
1.29
-1.57
-4.79
-8.14
-11.42
-14.46
-17.24
-19.85
-22.46
-25.26
-28.35
-31.75
-35.23
-38.37
-40.52
-41.03
-39.42
-35.65
-30.17
-23.74
-17.15
-10.87
-5.03
0.5
5.85
10.99
15.67
19.62
22.64
24.76
26.15
27.08
27.72
28.2
28.52
28.6
28.4
27.84
26.91
25.7
24.39
23.11
21.95
20.83
19.54
17.87
15.71
13.1
10.2
7.2
4.18
1.15
-1.97
-5.24
-8.69
-12.3
-16.07
-20.03
-24.19
-28.46
-32.51
-35.79
-37.62
-37.38
-34.78
-30
-23.65
-16.55
-9.52
-3.09
2.5
7.2
11.05
14.03
16.13
17.38
17.93
17.96
17.65
17.09
16.3
15.23
13.95
12.56
11.21
10.02
8.96
7.95
6.88
5.67
4.31
2.85
1.33
-0.17
-1.66
-3.18
-4.82
-6.73
-9.01
-11.74
-14.92
-18.39
-21.9
-25.05
-27.34
-28.25
-27.38
-24.63
-20.18
-14.5
-8.21
-1.84
4.21
9.68
14.43
18.31
21.22
23.11
24.03
24.06
23.33
21.92
20.02
17.87
15.76
13.97
12.58
11.51
10.54
9.43
8.06
6.45
4.65
2.73
0.68
-1.53
-3.9
-6.37
-8.93
-11.65
-14.65
-18.04
-21.78
-25.53
-28.67
-30.48
-30.32
-27.88
-23.28
-17.02
-9.87
-2.61
4.08
9.81
14.4
17.82
20.17
21.58
22.26
22.54
22.76
23.21
24.03
25.14
26.26
27
26.98
25.93
23.74
20.45
16.27
11.54
6.69
2.18
-1.65
-4.64
-6.91
-8.77
-10.63
-12.87
-15.8
-19.5
-23.84
-28.35
-32.36
-35.03
-35.66
-33.92
-29.97
-24.4
-18.07
-11.82
-6.23
-1.53
2.35
5.65
8.65
11.51
14.23
16.61
18.36
19.16
18.88
17.59
15.65
13.5
11.57
10.05
8.91
7.9
6.72
5.16
3.14
0.7
-2.06
-5.05
-8.2
-11.48
-14.8
-18.09
-21.27
-24.36
-27.43
-30.5
-33.43
-35.76
-36.82
-35.92
-32.64
-26.98
-19.46
-10.85
-2
6.42
14.04
20.69
26.4
31.19
35.07
37.99
39.89
40.8
40.85
40.29
39.42
38.46
37.5
36.47
35.22
33.66
31.85
29.98
28.26
26.71
25.14
23.21
20.56
17.03
12.72
7.94
3.1
-1.46
-5.62
-9.45
-13.26
-17.37
-22.06
-27.45
-33.41
-39.63
-45.55
-50.49
-53.71
-54.53
-52.52
-47.63
-40.27
-31.18
-21.33
-11.59
-2.55
5.5
12.49
18.43
23.29
27.01
29.64
31.34
32.43
33.2
33.84
34.31
34.43
33.96
32.74
30.81
28.34
25.68
23.25
21.35
20.19
19.68
19.54
19.38
18.89
17.97
16.72
15.35
13.96
12.57
10.99
9
6.5
3.55
0.37
-2.7
-5.35
-7.47
-9.15
-10.71
-12.61
-15.25
-18.89
-23.56
-29
-34.74
-40.11
-44.29
-46.45
-45.93
-42.46
-36.32
-28.27
-19.35
-10.53
-2.48
4.54
10.54
15.64
19.9
23.34
25.97
27.84
29.09
29.83
30.09
29.81
28.94
27.48
25.61
23.62
21.84
20.53
19.79
19.49
19.39
19.21
18.7
17.72
16.3
14.51
12.48
10.29
7.94
5.4
2.61
-0.39
-3.52
-6.64
-9.71
-12.72
-15.81
-19.14
-22.92
-27.28
-32.19
-37.41
-42.42
-46.45
-48.67
-48.43
-45.5
-40.11
-32.91
-24.69
-16.16
-7.87
-0.16
6.73
12.58
17.22
20.59
22.75
23.89
24.24
24
23.34
22.38
21.22
19.95
18.64
17.34
16.09
14.94
13.93
13
12.03
10.82
9.19
7.11
4.69
2.14
-0.3
-2.59
-4.81
-7.17
-9.9
-13.18
-17.07
-21.54
-26.39
-31.2
-35.3
-37.94
-38.42
-36.45
-32.16
-26.18
-19.35
-12.44
-5.99
-0.22
4.84
9.19
12.79
15.56
17.47
18.54
18.89
18.64
17.82
16.44
14.53
12.2
9.69
7.3
5.26
3.68
2.52
1.64
0.87
0.09
-0.82
-1.93
-3.36
-5.18
-7.42
-10.05
-13.02
-16.31
-19.89
-23.67
-27.36
-30.45
-32.34
-32.51
-30.73
-27.13
-22.14
-16.28
-9.97
-3.48
2.99
9.25
14.99
19.89
23.64
26.06
27.11
26.87
25.5
23.26
20.41
17.31
14.29
11.63
9.48
7.83
6.51
5.25
3.75
1.75
-0.83
-3.86
-7.04
-10.05
-12.68
-14.96
-17.17
-19.68
-22.79
-26.57
-30.83
-35.09
-38.68
-40.8
-40.72
-37.99
-32.58
-25.02
-16.23
-7.31
0.82
7.61
12.99
17.16
20.42
22.99
24.9
26.09
26.46
25.99
24.76
22.94
20.78
18.5
16.25
14.08
11.99
9.93
7.94
6.06
4.36
2.83
1.33
-0.31
-2.32
-4.86
-8.03
-11.9
-16.49
-21.8
-27.76
-34.18
-40.68
-46.75
-51.74
-54.94
-55.78
-53.97
-49.66
-43.44
-36.17
-28.78
-21.98
-16.11
-11.27
-7.47
-4.79
-3.36
-3.34
-4.65
-6.98
-9.87
-12.82
-15.47
-17.63
-19.14
-19.79
-19.31
-17.42
-13.96
-8.94
-2.55
4.97
13.34
22.27
31.41
40.25
48.18
54.6
59.03
61.26
61.39
59.68
56.47
52.12
46.94
41.2
35.14
28.91
22.57
16.02
9.09
1.66
-6.11
-13.7
-20.24
-24.78
-26.6
-25.46
-21.7
-16.03
-9.25
-1.99
5.32
12.44
19.14
25.14
30.15
33.95
36.46
37.74
37.96
37.3
35.97
34.22
32.3
30.46
28.89
27.6
26.48
25.34
24.01
22.4
20.57
18.67
16.93
15.52
14.52
13.89
13.47
13
12.2
10.82
8.66
5.58
1.67
-2.85
-7.58
-12.14
-16.3
-20.14
-23.95
-28.15
-33.04
-38.6
-44.47
-49.98
-54.33
-56.75
-56.68
-53.82
-48.29
-40.55
-31.35
-21.57
-11.99
-3.19
4.56
11.15
16.57
20.87
24.06
26.26
27.56
28.18
28.33
28.21
27.91
27.43
26.71
25.68
24.38
22.95
21.65
20.7
20.13
19.78
19.29
18.25
16.4
13.76
10.54
7.12
3.83
0.8
-1.97
-4.67
-7.56
-10.91
-14.9
-19.58
-24.8
-30.17
-35.08
-38.83
-40.76
-40.46
-37.81
-33.06
-26.74
-19.48
-11.93
-4.6
2.15
8.11
13.15
17.13
19.94
21.54
22.02
21.67
20.83
19.84
18.86
17.83
16.59
15
13.08
10.99
8.99
7.27
5.87
4.7
3.55
2.26
0.73
-1.06
-3.05
-5.22
-7.6
-10.27
-13.41
-17.18
-21.62
-26.61
-31.78
-36.6
-40.42
-42.65
-42.85
-40.79
-36.54
-30.48
-23.16
-15.2
-7.16
0.49
7.43
13.43
18.31
21.96
24.37
25.65
25.97
25.51
24.4
22.78
20.74
18.5
16.26
14.28
12.68
11.53
10.78
10.32
9.99
9.59
8.82
7.41
5.19
2.18
-1.4
-5.19
-8.84
-12.17
-15.28
-18.46
-22.13
-26.55
-31.74
-37.27
-42.34
-45.96
-47.23
-45.64
-41.25
-34.6
-26.54
-17.96
-9.56
-1.75
5.29
11.52
16.96
21.56
25.27
28.01
29.75
30.53
30.52
29.95
29.04
27.96
26.74
25.36
23.82
22.16
20.48
18.82
17.14
15.28
13.11
10.58
7.81
4.99
2.3
-0.25
-2.75
-5.43
-8.51
-12.17
-16.55
-21.69
-27.5
-33.71
-39.72
-44.76
-48.02
-48.87
-47.03
-42.62
-36.05
-27.92
-18.84
-9.46
-0.36
7.92
14.95
20.46
24.34
26.69
27.71
27.67
26.89
25.62
24.12
22.57
21.14
19.93
18.95
18.12
17.27
16.27
15.03
13.63
12.23
11
9.97
8.96
7.71
5.95
3.65
0.95
-1.82
-4.4
-6.65
-8.62
-10.44
-12.3
-14.38
-16.9
-20.08
-24.17
-29.23
-35.07
-41.04
-46.23
-49.53
-50.08
-47.44
-41.73
-33.59
-23.93
-13.67
-3.6
5.72
13.97
20.86
26.24
30.02
32.23
33.1
32.95
32.12
30.93
29.58
28.19
26.86
25.61
24.49
23.48
22.63
21.95
21.41
20.89
20.09
18.67
16.36
13.09
9.12
4.9
0.88
-2.67
-5.82
-8.79
-11.91
-15.43
-19.52
-24.23
-29.6
-35.55
-41.77
-47.65
-52.27
-54.7
-54.16
-50.39
-43.67
-34.78
-24.75
-14.57
-5
3.52
10.79
16.76
21.4
24.74
26.81
27.76
27.86
27.39
26.63
25.71
24.64
23.38
21.86
20.09
18.13
16.16
14.37
12.89
11.74
10.72
9.47
7.56
4.72
0.9
-3.61
-8.47
-13.42
-18.46
-23.84
-29.82
-36.43
-43.29
-49.63
-54.43
-56.76
-56
-52.02
-45.2
-36.33
-26.39
-16.27
-6.57
2.43
10.72
18.32
25.15
30.99
35.56
38.68
40.36
40.76
40.16
38.83
36.97
34.73
32.28
29.83
27.53
25.51
23.75
22.04
20.09
17.63
14.5
10.79
6.77
2.75
-1.03
-4.6
-8.23
-12.3
-17.17
-22.95
-29.46
-36.24
-42.55
-47.5
-50.18
-49.84
-46.16
-39.32
-30.07
-19.52
-8.85
0.98
9.39
16.22
21.58
25.67
28.73
30.91
32.35
33.1
33.23
32.72
31.57
29.78
27.49
24.94
22.42
20.21
18.42
17
15.72
14.32
12.54
10.26
7.5
4.35
0.94
-2.64
-6.42
-10.53
-15.16
-20.51
-26.71
-33.69
-41.09
-48.18
-53.95
-57.29
-57.28
-53.53
-46.34
-36.63
-25.64
-14.59
-4.28
4.89
12.86
19.71
25.44
30.02
33.43
35.76
37.18
37.9
38.03
37.64
36.68
35.16
33.17
30.88
28.54
26.33
24.36
22.56
20.75
18.67
16.1
12.92
9.18
5.04
0.74
-3.51
-7.62
-11.61
-15.63
-19.91
-24.66
-30.01
-35.85
-41.75
-46.96
-50.54
-51.61
-49.63
-44.56
-36.85
-27.32
-16.91
-6.49
3.26
11.87
19.13
24.99
29.52
32.85
35.1
36.38
36.74
36.27
35.09
33.38
31.31
29.06
26.81
24.73
22.97
21.57
20.35
18.95
16.9
13.87
9.84
5.14
0.25
-4.35
-8.43
-12.05
-15.49
-19.11
-23.19
-27.89
-33.14
-38.7
-44.04
-48.45
-51.05
-51.05
-47.94
-41.72
-32.91
-22.45
-11.46
-0.91
8.55
16.66
23.39
28.77
32.83
35.51
36.82
36.97
36.28
35.1
33.65
31.94
29.88
27.36
24.52
21.61
18.98
16.81
15.04
13.34
11.32
8.71
5.47
1.78
-2.04
-5.66
-8.88
-11.64
-14.04
-16.29
-18.69
-21.62
-25.42
-30.26
-35.98
-41.97
-47.19
-50.42
-50.6
-47.16
-40.26
-30.68
-19.56
-8.09
2.82
12.6
20.98
27.89
33.35
37.44
40.26
41.94
42.58
42.3
41.19
39.41
37.14
34.64
32.16
29.87
27.91
26.31
25.05
24.04
23.12
22.07
20.72
18.94
16.72
14.13
11.24
8.07
4.61
0.87
-3.1
-7.19
-11.33
-15.53
-19.86
-24.48
-29.47
-34.86
-40.48
-45.95
-50.66
-53.82
-54.63
-52.5
-47.39
-39.77
-30.5
-20.56
-10.69
-1.31
7.38
15.31
22.28
28
32.22
34.78
35.63
34.92
32.9
29.94
26.47
22.94
19.7
16.89
14.56
12.66
11.19
10.2
9.69
9.48
9.27
8.69
7.46
5.54
3.14
0.57
-1.88
-4.12
-6.25
-8.59
-11.56
-15.57
-20.77
-26.92
-33.37
-39.08
-42.93
-44
-41.89
-36.79
-29.4
-20.69
-11.58
-2.79
5.26
12.38
18.54
23.7
27.77
30.65
32.25
32.64
31.98
30.59
28.79
26.86
24.93
23.04
21.16
19.31
17.52
15.87
14.41
13.02
11.54
9.71
7.42
4.65
1.56
-1.59
-4.59
-7.36
-9.97
-12.7
-15.87
-19.77
-24.48
-29.75
-35
-39.34
-41.82
-41.66
-38.54
-32.73
-25
-16.39
-7.92
-0.31
6.1
11.25
15.23
18.13
19.92
20.62
20.31
19.17
17.51
15.57
13.54
11.5
9.48
7.56
5.81
4.29
2.99
1.83
0.63
-0.74
-2.35
-4.15
-6.01
-7.8
-9.49
-11.18
-13.15
-15.74
-19.2
-23.57
-28.55
-33.48
-37.56
-39.93
-39.93
-37.25
-32.03
-24.83
-16.53
-8.19
-0.69
5.44
10.11
13.64
16.42
18.72
20.54
21.65
21.82
20.95
19.21
16.93
14.48
12.21
10.31
8.85
7.79
6.95
6.15
5.18
3.9
2.23
0.13
-2.41
-5.4
-8.86
-12.74
-16.95
-21.41
-26.06
-30.81
-35.47
-39.61
-42.54
-43.52
-41.99
-37.82
-31.42
-23.57
-15.15
-6.95
0.53
7.02
12.41
16.64
19.71
21.68
22.68
22.86
22.42
21.47
20.15
18.61
16.99
15.49
14.29
13.44
12.9
12.46
11.83
10.75
9.09
6.95
4.53
2.14
-0.02
-1.93
-3.7
-5.6
-7.96
-11.16
-15.49
-21.05
-27.56
-34.21
-39.77
-42.87
-42.53
-38.48
-31.32
-22.23
-12.54
-3.28
5.01
12.18
18.28
23.29
27.15
29.79
31.26
31.79
31.64
31
29.9
28.25
25.93
22.99
19.67
16.4
13.69
12
11.6
12.5
14.42
16.83
19.05
20.36
20.2
18.35
14.97
10.59
5.88
1.48
-2.31
-5.57
-8.65
-12.05
-16.19
-21.25
-27.09
-33.19
-38.64
-42.39
-43.47
-41.27
-35.82
-27.83
-18.42
-8.83
-0.03
7.4
13.27
17.66
20.79
22.92
24.38
25.4
26.11
26.42
26.11
24.92
22.77
19.83
16.51
13.33
10.73
8.95
8.07
7.95
8.37
9.02
9.54
9.55
8.77
7.04
4.42
1.11
-2.57
-6.36
-10.11
-13.79
-17.44
-21.05
-24.4
-27.08
-28.48
-28.1
-25.69
-21.41
-15.82
-9.71
-3.84
1.33
5.61
9.1
11.95
14.26
16
17.07
17.43
17.1
16.21
14.91
13.35
11.68
10.03
8.59
7.44
6.57
5.73
4.55
2.58
-0.43
-4.44
-8.99
-13.33
-16.63
-18.27
-18.1
-16.45
-14.1
-11.94
-10.73
-10.83
-12.18
-14.41
-17.01
-19.45
-21.28
-22.08
-21.44
-19.09
-14.88
-8.94
-1.77
5.9
13.14
18.99
22.72
23.92
22.71
19.64
15.55
11.33
7.66
4.95
3.26
2.51
2.44
2.83
3.38
3.79
3.78
3.12
1.75
-0.25
-2.67
-5.34
-8.13
-11.11
-14.48
-18.39
-22.88
-27.66
-32.1
-35.4
-36.78
-35.77
-32.34
-26.96
-20.4
-13.48
-6.88
-1
4.01
8.16
11.58
14.38
16.59
18.21
19.15
19.37
18.88
17.78
16.3
14.71
13.27
12.14
11.36
10.85
10.46
10.01
9.33
8.32
6.9
5.09
2.97
0.68
-1.69
-4.08
-6.59
-9.39
-12.7
-16.58
-20.89
-25.2
-28.91
-31.32
-31.9
-30.42
-27.02
-22.18
-16.52
-10.66
-5.03
0.15
4.83
9.02
12.67
15.7
17.97
19.42
20.06
20.02
19.48
18.66
17.74
16.87
16.08
15.35
14.61
13.79
12.9
11.96
11.08
10.27
9.55
8.81
7.94
6.85
5.44
3.71
1.67
-0.58
-2.98
-5.49
-8.16
-11.12
-14.51
-18.39
-22.62
-26.87
-30.62
-33.27
-34.29
-33.3
-30.17
-25.16
-18.78
-11.77
-4.91
1.19
6.14
9.84
12.39
14.01
14.94
15.41
15.61
15.71
15.76
15.74
15.53
15.05
14.27
13.27
12.2
11.23
10.44
9.82
9.26
8.6
7.74
6.61
5.22
3.59
1.72
-0.41
-2.84
-5.62
-8.75
-12.17
-15.82
-19.53
-23.12
-26.3
-28.69
-29.84
-29.33
-26.92
-22.71
-17.19
-11.09
-5.21
-0.12
3.91
6.98
9.36
11.28
12.86
14
14.56
14.43
13.62
12.32
10.8
9.38
8.3
7.68
7.5
7.6
7.74
7.65
7.18
6.2
4.71
2.72
0.32
-2.38
-5.18
-7.92
-10.47
-12.84
-15.19
-17.74
-20.66
-23.89
-27.07
-29.63
-30.9
-30.36
-27.82
-23.48
-17.87
-11.73
-5.76
-0.4
4.14
7.9
10.99
13.45
15.26
16.31
16.61
16.28
15.57
14.77
14.03
13.35
12.66
11.88
10.98
10.03
9.12
8.24
7.34
6.26
4.89
3.19
1.21
-0.92
-3.04
-5.1
-7.21
-9.61
-12.6
-16.33
-20.67
-25.13
-28.97
-31.43
-31.94
-30.33
-26.82
-21.91
-16.24
-10.43
-4.98
-0.26
3.55
6.43
8.55
10.18
11.58
12.98
14.47
15.98
17.36
18.46
19.16
19.44
19.32
18.89
18.24
17.47
16.63
15.73
14.73
13.48
11.87
9.77
7.14
4.03
0.58
-3.05
-6.77
-10.49
-14.2
-17.81
-21.08
-23.62
-25.01
-24.9
-23.15
-19.9
-15.5
-10.47
-5.31
-0.48
3.7
7.04
9.55
11.34
12.62
13.61
14.48
15.32
16.08
16.65
16.83
16.54
15.75
14.58
13.19
11.75
10.3
8.81
7.18
5.32
3.22
0.89
-1.7
-4.7
-8.33
-12.73
-17.79
-23.05
-27.78
-31.21
-32.75
-32.18
-29.71
-25.78
-21
-15.86
-10.73
-5.82
-1.21
3
6.65
9.5
11.33
12.02
11.72
10.75
9.55
8.44
7.49
6.57
5.43
3.99
2.37
0.94
-0.01
-0.31
-0.09
0.32
0.6
0.51
-0.07
-1.15
-2.76
-4.93
-7.64
-10.69
-13.63
-15.83
-16.6
-15.48
-12.33
-7.46
-1.49
4.86
10.94
16.31
20.73
24.09
26.26
27.12
26.62
24.88
22.25
19.24
16.41
14.14
12.56
11.56
10.88
10.27
9.7
9.29
9.27
9.76
10.63
11.47
11.65
10.66
8.25
4.55
-0.04
-5.14
-10.52
-16.1
-21.77
-27.14
-31.54
-34.15
-34.4
-32.21
-28.1
-22.95
-17.61
-12.64
-8.14
-3.94
0.21
4.37
8.38
11.93
14.76
16.74
17.95
18.63
18.99
19.2
19.21
18.87
18.03
16.64
14.83
12.85
10.95
9.33
8.03
6.98
6.07
5.09
3.82
2.05
-0.44
-3.77
-7.86
-12.37
-16.69
-20.1
-21.81
-21.31
-18.43
-13.54
-7.4
-0.99
4.82
9.48
12.95
15.48
17.4
18.88
19.82
20.01
19.28
17.72
15.65
13.52
11.65
10.14
8.81
7.35
5.46
3
0.04
-3.16
-6.25
-8.9
-10.88
-12.19
-13.05
-13.85
-14.96
-16.56
-18.51
-20.33
-21.35
-20.98
-18.9
-15.26
-10.59
-5.69
-1.42
1.56
2.95
2.87
1.82
0.52
-0.23
0.14
1.85
4.71
8.28
11.96
15.28
17.97
19.92
21.16
21.58
20.98
19.06
15.62
10.69
4.64
-1.92
-8.32
-13.97
-18.52
-21.81
-23.85
-24.77
-24.81
-24.26
-23.39
-22.4
-21.29
-19.94
-18.11
-15.63
-12.48
-8.72
-4.5
0.03
4.68
9.2
13.23
16.38
18.32
18.94
18.35
16.88
14.9
12.71
10.52
8.38
6.33
4.44
2.76
1.39
0.36
-0.38
-0.92
-1.36
-1.8
-2.37
-3.26
-4.74
-7.09
-10.51
-14.92
-19.85
-24.47
-27.81
-29.02
-27.68
-23.91
-18.26
-11.53
-4.47
2.39
8.71
14.37
19.28
23.33
26.37
28.24
28.81
28.06
26.15
23.37
20.19
17.01
14.25
12.08
10.57
9.61
9.03
8.68
8.38
8.03
7.52
6.74
5.56
3.85
1.49
-1.56
-5.27
-9.54
-14.23
-19.22
-24.34
-29.26
-33.44
-36.12
-36.6
-34.45
-29.78
-23.11
-15.28
-7.14
0.69
7.81
13.96
18.96
22.65
24.97
25.98
25.95
25.2
24.06
22.79
21.51
20.25
19
17.69
16.31
14.91
13.61
12.55
11.84
11.48
11.24
10.81
9.85
8.18
5.82
3.01
0.1
-2.61
-4.92
-6.82
-8.44
-10.01
-11.79
-14.02
-16.88
-20.41
-24.5
-28.78
-32.67
-35.42
-36.3
-34.85
-31.05
-25.35
-18.55
-11.48
-4.78
1.3
6.74
11.65
15.99
19.59
22.22
23.78
24.38
24.24
23.62
22.63
21.23
19.42
17.28
15.08
13.21
12.01
11.66
12.03
12.73
13.26
13.12
12.04
10.07
7.49
4.68
2
-0.45
-2.83
-5.41
-8.51
-12.33
-16.88
-21.99
-27.28
-32.18
-35.97
-37.86
-37.27
-34.02
-28.47
-21.41
-13.94
-7.1
-1.67
1.97
3.9
4.49
4.3
3.83
3.43
3.23
3.2
3.32
3.65
4.36
5.63
7.5
9.78
12.07
13.94
15.03
15.2
14.41
12.77
10.51
7.9
5.3
3.12
1.65
0.97
0.9
0.99
0.68
-0.51
-2.8
-6.05
-9.67
-12.61
-13.56
-11.2
-4.74
5.75
19.01
32.82
44.59
52.09
54.18
51.08
44.19
35.42
26.59
18.9
12.85
8.42
5.45
3.88
3.84
5.41
8.32
11.78
14.51
15.17
12.93
7.84
0.83
-6.76
-13.69
-19.37
-23.9
-27.75
-31.39
-34.91
-38.13
-40.8
-42.92
-44.71
-46.43
-48.15
-49.48
-49.74
-48.19
-44.44
-38.63
-31.41
-23.72
-16.46
-10.3
-5.5
-1.99
0.48
2.29
3.79
5.22
6.69
8.12
9.29
9.98
10.04
9.51
8.65
7.75
7.06
6.62
6.32
5.91
5.18
4.09
2.77
1.45
0.32
-0.56
-1.31
-2.2
-3.59
-5.72
-8.68
-12.38
-16.53
-20.76
-24.6
-27.52
-29.02
-28.7
-26.38
-22.19
-16.64
-10.47
-4.49
0.73
4.97
8.33
11.08
13.42
15.38
16.81
17.54
17.55
16.98
16.13
15.28
14.64
14.26
14.09
14.1
14.26
14.54
14.89
15.16
15.15
14.64
13.47
11.63
9.23
6.57
3.96
1.68
-0.21
-1.86
-3.69
-6.2
-9.74
-14.4
-19.82
-25.25
-29.7
-32.26
-32.35
-29.84
-25.1
-18.82
-11.81
-4.8
1.72
7.47
12.35
16.33
19.45
21.75
23.31
24.17
24.35
23.9
22.92
21.6
20.15
18.8
17.64
16.66
15.75
14.81
13.84
12.94
12.21
11.67
11.21
10.6
9.62
8.15
6.24
4.05
1.77
-0.43
-2.49
-4.43
-6.34
-8.34
-10.55
-13.09
-16.02
-19.34
-22.91
-26.41
-29.35
-31.16
-31.29
-29.44
-25.59
-20.14
-13.72
-7.08
-0.83
4.68
9.32
13.15
16.25
18.67
20.44
21.59
22.11
22.06
21.45
20.36
18.87
17.14
15.35
13.71
12.38
11.42
10.72
10.09
9.28
8.08
6.42
4.37
2.08
-0.23
-2.41
-4.43
-6.39
-8.45
-10.82
-13.7
-17.19
-21.22
-25.42
-29.18
-31.7
-32.24
-30.43
-26.36
-20.65
-14.15
-7.7
-1.85
3.1
7.1
10.17
12.34
13.67
14.25
14.3
14
13.52
12.93
12.22
11.38
10.4
9.35
8.3
7.3
6.35
5.41
4.45
3.36
2.05
0.39
-1.75
-4.35
-7.31
-10.4
-13.44
-16.36
-19.25
-22.26
-25.4
-28.4
-30.74
-31.75
-30.89
-27.96
-23.16
-17.09
-10.47
-3.98
1.85
6.79
10.77
13.88
16.22
17.92
19.06
19.7
19.9
19.72
19.22
18.41
17.34
16.06
14.67
13.26
11.92
10.67
9.47
8.25
6.95
5.54
3.95
2.15
0.08
-2.25
-4.82
-7.59
-10.57
-13.8
-17.33
-21.1
-24.83
-28.03
-30.07
-30.39
-28.67
-24.98
-19.71
-13.54
-7.16
-1.18
4.08
8.53
12.29
15.47
18.04
19.89
20.88
21.05
20.63
20
19.43
19.01
18.55
17.8
16.65
15.18
13.64
12.24
11.11
10.24
9.53
8.86
8.11
7.17
5.89
4.21
2.15
-0.2
-2.71
-5.38
-8.35
-11.83
-15.96
-20.62
-25.41
-29.72
-32.94
-34.54
-34.25
-31.99
-27.98
-22.6
-16.4
-9.9
-3.62
2.11
7.07
11.21
14.6
17.36
19.64
21.53
23
23.96
24.27
23.89
22.9
21.53
20.04
18.62
17.33
16.17
15.15
14.31
13.72
13.39
13.16
12.8
12.05
10.78
8.97
6.78
4.39
2.01
-0.23
-2.22
-3.98
-5.56
-7.07
-8.6
-10.2
-11.89
-13.75
-15.95
-18.76
-22.35
-26.64
-31.13
-35
-37.35
-37.57
-35.48
-31.44
-26.1
-20.12
-14.03
-8.08
-2.37
3.09
8.16
12.62
16.2
18.67
19.98
20.24
19.71
18.66
17.33
15.89
14.45
13.16
12.12
11.45
11.14
11.03
10.86
10.33
9.17
7.31
4.83
1.95
-1
-3.78
-6.27
-8.55
-10.84
-13.42
-16.47
-20.04
-24.04
-28.26
-32.58
-36.87
-41.14
-45.42
-49.78
-54.31
-59.1
-64.16
-69.31
-74.1
-77.8
-79.52
-78.47
-74.13
-66.44
-55.77
-42.83
-28.5
-13.62
1.07
15.07
28.04
39.77
50.06
58.69
65.43
70.14
72.81
73.61
72.85
70.88
68
64.49
60.59
56.58
52.73
49.26
46.25
43.61
41.06
38.3
35.04
31.19
26.81
22.14
17.51
13.18
9.28
5.72
2.27
-1.35
-5.32
-9.62
-14.07
-18.35
-22.08
-24.9
-26.44
-26.37
-24.51
-20.89
-15.83
-9.91
-3.78
1.95
6.86
10.82
13.86
16.1
17.66
18.58
18.86
18.45
17.43
15.94
14.23
12.6
11.28
10.34
9.67
9.09
8.37
7.41
6.19
4.76
3.19
1.46
-0.42
-2.44
-4.53
-6.61
-8.62
-10.54
-12.51
-14.7
-17.28
-20.28
-23.53
-26.64
-29.07
-30.28
-29.89
-27.82
-24.22
-19.46
-14.01
-8.28
-2.65
2.58
7.14
10.83
13.55
15.3
16.25
16.59
16.53
16.2
15.64
14.9
14.04
13.13
12.24
11.35
10.38
9.25
7.93
6.5
5.07
3.75
2.53
1.31
-0.04
-1.6
-3.38
-5.4
-7.69
-10.34
-13.47
-17.06
-20.95
-24.83
-28.24
-30.73
-31.85
-31.27
-28.85
-24.71
-19.24
-13.03
-6.71
-0.79
4.46
8.96
12.75
15.88
18.34
20.12
21.23
21.65
21.4
20.51
19.1
17.38
15.59
13.99
12.73
11.84
11.23
10.72
10.11
9.24
8.01
6.38
4.43
2.3
0.14
-1.97
-4.02
-6.12
-8.37
-10.87
-13.69
-16.92
-20.62
-24.73
-28.92
-32.58
-34.86
-35.03
-32.7
-28.03
-21.64
-14.42
-7.18
-0.51
5.24
10
13.77
16.65
18.78
20.26
21.22
21.72
21.84
21.64
21.2
20.57
19.75
18.71
17.5
16.18
14.92
13.87
13.05
12.4
11.7
10.69
9.21
7.2
4.74
1.99
-0.81
-3.45
-5.72
-7.58
-9.11
-10.49
-11.97
-13.77
-16.07
-19
-22.6
-26.76
-31.1
-34.96
-37.51
-38.03
-36.15
-31.98
-26.07
-19.17
-12
-5.1
1.17
6.64
11.24
14.98
17.9
20.09
21.64
22.62
23.08
23.11
22.81
22.27
21.54
20.67
19.7
18.71
17.79
17.02
16.38
15.81
15.16
14.33
13.31
12.08
10.63
8.89
6.82
4.41
1.75
-1
-3.69
-6.17
-8.42
-10.49
-12.49
-14.6
-17.06
-20.09
-23.84
-28.21
-32.82
-37.05
-40.13
-41.36
-40.31
-36.93
-31.57
-24.85
-17.53
-10.27
-3.55
2.38
7.46
11.7
15.13
17.77
19.66
20.88
21.6
21.94
21.93
21.56
20.78
19.61
18.13
16.53
14.95
13.57
12.44
11.57
10.87
10.14
9.1
7.55
5.4
2.79
0.04
-2.54
-4.8
-6.78
-8.73
-10.91
-13.51
-16.6
-20.16
-24.03
-27.84
-31.06
-32.97
-32.99
-30.77
-26.43
-20.44
-13.53
-6.4
0.35
6.34
11.37
15.43
18.59
20.98
22.7
23.78
24.19
23.92
23.05
21.78
20.33
18.87
17.45
16.03
14.57
13.13
11.8
10.67
9.67
8.63
7.27
5.44
3.06
0.25
-2.78
-5.8
-8.64
-11.26
-13.79
-16.49
-19.59
-23.14
-26.82
-30.04
-32.08
-32.38
-30.69
-27.15
-22.16
-16.17
-9.59
-2.83
3.69
9.54
14.32
17.81
19.98
20.97
21
20.29
19.02
17.41
15.71
14.14
12.84
11.82
10.91
9.92
8.7
7.16
5.34
3.34
1.26
-0.78
-2.72
-4.57
-6.39
-8.33
-10.55
-13.19
-16.4
-20.16
-24.3
-28.4
-31.83
-33.85
-33.82
-31.46
-26.91
-20.71
-13.59
-6.28
0.63
6.74
11.75
15.51
18
19.37
19.9
19.89
19.6
19.1
18.37
17.33
15.86
13.92
11.54
8.8
5.85
2.95
0.35
-1.69
-3.12
-4.09
-4.94
-6.07
-7.9
-10.65
-14.35
-18.87
-23.9
-29.06
-33.84
-37.7
-40.03
-40.35
-38.35
-34.01
-27.78
-20.37
-12.65
-5.35
1.11
6.67
11.54
15.91
19.89
23.38
26.15
28.01
28.82
28.56
27.28
25.17
22.43
19.45
16.61
14.21
12.38
10.99
9.76
8.4
6.69
4.51
1.86
-1.26
-4.8
-8.72
-12.97
-17.47
-22.21
-27.11
-31.98
-36.41
-39.78
-41.37
-40.58
-37.15
-31.29
-23.54
-14.7
-5.56
3.2
11.13
17.91
23.42
27.53
30.22
31.55
31.73
31.1
30.09
29.08
28.25
27.52
26.61
25.32
23.56
21.45
19.2
16.93
14.61
12.1
9.32
6.29
3.16
0.08
-2.94
-6.01
-9.36
-13.18
-17.62
-22.71
-28.37
-34.33
-40.06
-44.72
-47.34
-47.05
-43.46
-36.78
-27.78
-17.6
-7.36
2.11
10.4
17.41
23.27
28.11
31.95
34.78
36.49
37.11
36.78
35.75
34.31
32.65
30.84
28.92
26.92
25
23.36
22.18
21.4
20.79
19.98
18.59
16.39
13.33
9.61
5.5
1.36
-2.52
-5.96
-8.99
-11.84
-14.89
-18.55
-23.12
-28.66
-34.88
-41.2
-46.78
-50.64
-51.95
-50.15
-45.23
-37.68
-28.38
-18.36
-8.49
0.64
8.74
15.72
21.56
26.24
29.71
32.02
33.28
33.69
33.47
32.83
31.89
30.7
29.25
27.57
25.71
23.84
22.14
20.7
19.5
18.33
16.9
15.01
12.55
9.66
6.55
3.49
0.57
-2.19
-4.99
-8.07
-11.71
-16.12
-21.32
-27.12
-32.97
-38.1
-41.6
-42.68
-40.91
-36.28
-29.27
-20.65
-11.3
-2.09
6.32
13.52
19.31
23.68
26.7
28.47
29.11
28.82
27.83
26.46
24.98
23.54
22.14
20.71
19.11
17.32
15.39
13.43
11.53
9.71
7.93
6.11
4.18
2.04
-0.33
-2.95
-5.78
-8.75
-11.84
-15.16
-18.95
-23.49
-28.89
-34.88
-40.7
-45.3
-47.53
-46.59
-42.21
-34.77
-25.13
-14.42
-3.7
6.21
14.87
22.15
28.09
32.73
36.02
37.86
38.21
37.2
35.22
32.76
30.3
28.12
26.27
24.66
23.16
21.7
20.29
18.98
17.74
16.5
15.1
13.36
11.17
8.43
5.17
1.53
-2.24
-5.9
-9.25
-12.25
-15.06
-17.98
-21.32
-25.36
-30.21
-35.78
-41.71
-47.41
-52.09
-54.87
-55
-52.13
-46.34
-38.23
-28.67
-18.59
-8.75
0.35
8.47
15.47
21.28
25.87
29.2
31.33
32.39
32.57
32.09
31.16
29.92
28.43
26.71
24.79
22.76
20.8
19.11
17.76
16.65
15.49
13.93
11.73
8.85
5.53
2.12
-1.1
-4.02
-6.74
-9.55
-12.81
-16.86
-21.9
-27.82
-34.22
-40.31
-45.08
-47.51
-46.91
-43.09
-36.4
-27.65
-17.86
-8.02
1.09
9.01
15.59
20.93
25.19
28.49
30.85
32.24
32.68
32.31
31.36
30.07
28.61
27.05
25.41
23.7
22.02
20.48
19.15
18.02
16.97
15.87
14.55
12.88
10.79
8.27
5.4
2.34
-0.81
-3.94
-7.07
-10.26
-13.55
-16.98
-20.59
-24.52
-28.95
-34.03
-39.58
-45.06
-49.5
-51.84
-51.24
-47.4
-40.66
-31.87
-22.08
-12.28
-3.25
4.63
11.25
16.68
21.08
24.52
27.08
28.76
29.66
29.95
29.83
29.46
28.85
27.88
26.45
24.54
22.31
20
17.86
16.01
14.42
12.93
11.31
9.32
6.8
3.74
0.31
-3.18
-6.38
-9.09
-11.37
-13.6
-16.27
-19.79
-24.31
-29.58
-34.93
-39.48
-42.3
-42.66
-40.22
-35.14
-28.07
-19.94
-11.71
-4.08
2.58
8.23
12.94
16.81
19.88
22.16
23.77
24.88
25.66
26.19
26.39
26
24.82
22.72
19.88
16.68
13.68
11.39
10.07
9.63
9.64
9.5
8.67
6.91
4.36
1.41
-1.5
-4.08
-6.36
-8.57
-11.07
-14.19
-18.12
-22.85
-28.11
-33.28
-37.44
-39.56
-38.82
-34.93
-28.27
-19.84
-10.84
-2.36
4.93
10.74
15.09
18.08
19.86
20.57
20.39
19.51
18.11
16.38
14.47
12.52
10.71
9.16
7.94
7.03
6.34
5.68
4.9
3.87
2.49
0.76
-1.26
-3.44
-5.71
-8.02
-10.44
-13.15
-16.34
-20.23
-24.86
-30.02
-35.17
-39.47
-41.97
-41.9
-38.88
-33.11
-25.28
-16.39
-7.41
0.87
7.97
13.66
17.87
20.6
21.99
22.17
21.41
19.95
18.05
15.95
13.84
11.87
10.1
8.59
7.28
6.11
4.99
3.83
2.58
1.18
-0.37
-2.1
-4
-6.1
-8.44
-11.11
-14.26
-18.09
-22.72
-28.13
-33.96
-39.53
-43.85
-45.91
-44.95
-40.79
-33.86
-25.11
-15.67
-6.52
1.73
8.83
14.78
19.65
23.46
26.25
28.12
29.18
29.57
29.35
28.56
27.21
25.43
23.43
21.49
19.84
18.53
17.41
16.25
14.72
12.63
9.88
6.54
2.82
-0.94
-4.46
-7.6
-10.49
-13.52
-17.14
-21.69
-27.14
-33.03
-38.51
-42.59
-44.33
-43.1
-38.7
-31.45
-22.15
-11.87
-1.74
7.38
15.01
21.08
25.79
29.38
31.98
33.64
34.41
34.43
33.96
33.28
32.54
31.77
30.83
29.55
27.85
25.85
23.77
21.91
20.45
19.37
18.44
17.27
15.48
12.85
9.39
5.38
1.26
-2.59
-5.97
-8.92
-11.74
-14.81
-18.53
-23.12
-28.53
-34.35
-39.83
-44
-45.9
-44.88
-40.8
-34.08
-25.56
-16.23
-6.97
1.55
8.97
15.13
19.96
23.45
25.67
26.78
27
26.61
25.84
24.85
23.71
22.41
20.96
19.34
17.64
15.94
14.36
12.96
11.68
10.32
8.65
6.48
3.83
0.91
-1.92
-4.36
-6.35
-8.06
-9.92
-12.38
-15.78
-20.24
-25.59
-31.32
-36.67
-40.74
-42.61
-41.66
-37.71
-31.15
-22.83
-13.78
-4.91
3.16
10.19
16.16
21.08
24.97
27.68
29.15
29.36
28.51
26.95
25.11
23.41
22.1
21.29
20.9
20.79
20.73
20.5
19.92
18.94
17.6
16.07
14.58
13.27
12.24
11.36
10.39
9.04
7.05
4.27
0.69
-3.57
-8.29
-13.19
-17.98
-22.43
-26.43
-30.05
-33.54
-37.19
-41.16
-45.3
-49.07
-51.66
-52.18
-50.03
-45.05
-37.65
-28.59
-18.85
-9.27
-0.43
7.33
13.88
19.21
23.32
26.32
28.35
29.63
30.37
30.71
30.66
30.17
29.22
27.88
26.41
25.06
24.03
23.3
22.69
21.94
20.87
19.45
17.78
15.97
14.11
12.22
10.21
8.03
5.61
2.91
-0.05
-3.19
-6.42
-9.63
-12.76
-15.84
-18.97
-22.32
-26.1
-30.4
-35.22
-40.24
-44.86
-48.26
-49.55
-48.1
-43.74
-36.9
-28.41
-19.31
-10.49
-2.55
4.25
9.87
14.39
17.9
20.5
22.31
23.49
24.18
24.51
24.56
24.38
23.95
23.29
22.42
21.38
20.26
19.16
18.21
17.45
16.85
16.31
15.64
14.67
13.25
11.3
8.82
5.89
2.65
-0.74
-4.08
-7.23
-10.11
-12.77
-15.36
-18.11
-21.27
-25.01
-29.35
-34.07
-38.7
-42.5
-44.64
-44.43
-41.51
-36.06
-28.68
-20.27
-11.74
-3.79
3.16
8.96
13.67
17.4
20.28
22.44
23.93
24.81
25.08
24.78
23.95
22.72
21.18
19.46
17.7
16.05
14.67
13.71
13.2
12.96
12.65
11.89
10.35
7.96
4.92
1.62
-1.52
-4.22
-6.36
-8.1
-9.77
-11.77
-14.55
-18.35
-23.15
-28.53
-33.73
-37.76
-39.67
-38.87
-35.26
-29.27
-21.77
-13.74
-6.07
0.7
6.38
11
14.69
17.46
19.28
20.14
20.14
19.58
18.79
18.01
17.28
16.43
15.28
13.79
12.16
10.69
9.65
9.1
8.81
8.44
7.64
6.21
4.19
1.74
-0.91
-3.51
-5.92
-8.13
-10.22
-12.4
-14.95
-18.12
-21.96
-26.22
-30.32
-33.46
-34.81
-33.8
-30.35
-24.84
-18.06
-10.87
-3.96
2.24
7.52
11.82
15.11
17.35
18.55
18.82
18.35
17.38
16.11
14.7
13.25
11.81
10.41
9.07
7.73
6.33
4.74
2.91
0.83
-1.48
-3.97
-6.64
-9.44
-12.32
-15.22
-18.15
-21.21
-24.58
-28.46
-32.83
-37.36
-41.35
-43.9
-44.22
-41.8
-36.7
-29.41
-20.79
-11.74
-3.13
4.44
10.62
15.27
18.46
20.28
20.88
20.43
19.15
17.33
15.31
13.4
11.78
10.48
9.4
8.4
7.36
6.22
4.96
3.55
2.04
0.43
-1.21
-2.89
-4.65
-6.62
-8.92
-11.64
-14.83
-18.49
-22.62
-27.07
-31.49
-35.25
-37.54
-37.61
-35.08
-30.09
-23.21
-15.29
-7.11
0.74
7.94
14.28
19.66
24.03
27.41
29.86
31.44
32.2
32.12
31.22
29.65
27.64
25.48
23.38
21.45
19.64
17.88
16.11
14.3
12.43
10.43
8.25
5.81
3.12
0.22
-2.73
-5.64
-8.51
-11.43
-14.64
-18.41
-22.89
-28
-33.33
-38.14
-41.55
-42.77
-41.3
-37.08
-30.53
-22.38
-13.54
-4.8
3.22
10.22
16.18
21.21
25.48
29.05
31.9
33.94
35.1
35.44
35.11
34.33
33.33
32.27
31.24
30.33
29.62
29.15
28.85
28.55
27.99
26.94
25.31
23.19
20.78
18.31
15.96
13.75
11.66
9.56
7.32
4.8
1.92
-1.36
-4.94
-8.63
-12.21
-15.48
-18.44
-21.2
-23.99
-27.08
-30.73
-35.05
-39.98
-45.13
-49.83
-53.14
-54.15
-52.19
-47.2
-39.67
-30.56
-20.92
-11.61
-3.15
4.3
10.76
16.28
20.86
24.47
27.1
28.77
29.6
29.79
29.54
29.09
28.56
28
27.4
26.74
26.04
25.39
24.9
24.61
24.44
24.16
23.51
22.28
20.39
17.88
14.93
11.74
8.54
5.52
2.84
0.56
-1.38
-3.14
-4.89
-6.72
-8.64
-10.64
-12.74
-15.09
-17.99
-21.73
-26.56
-32.53
-39.41
-46.68
-53.53
-59
-62.13
-62.26
-59.12
-52.89
-44.12
-33.59
-22.16
-10.73
-0.08
9.08
16.27
21.36
24.55
26.35
27.39
28.23
29.22
30.41
31.63
32.58
32.99
32.7
31.75
30.35
28.83
27.5
26.53
25.89
25.38
24.72
23.64
22.01
19.8
17.12
14.16
11.16
8.3
5.67
3.25
0.87
-1.64
-4.37
-7.28
-10.28
-13.23
-16.12
-19.08
-22.32
-26.08
-30.46
-35.38
-40.52
-45.29
-48.92
-50.6
-49.69
-45.93
-39.62
-31.51
-22.58
-13.71
-5.48
1.88
8.36
13.97
18.63
22.24
24.75
26.24
26.94
27.12
26.97
26.59
25.96
25.05
23.85
22.43
20.92
19.49
18.28
17.34
16.63
15.97
15.1
13.8
11.9
9.38
6.35
3.02
-0.34
-3.5
-6.35
-8.96
-11.56
-14.52
-18.12
-22.48
-27.38
-32.35
-36.68
-39.64
-40.64
-39.35
-35.81
-30.35
-23.56
-16.09
-8.56
-1.43
5.02
10.59
15.18
18.68
21.04
22.28
22.54
22.08
21.17
20.04
18.85
17.67
16.5
15.34
14.14
12.92
11.7
10.54
9.5
8.57
7.67
6.55
4.99
2.81
0.04
-3.1
-6.25
-9.18
-11.84
-14.46
-17.38
-20.91
-25.15
-29.91
-34.72
-38.92
-41.74
-42.49
-40.7
-36.24
-29.45
-21.07
-12.02
-3.2
4.76
11.51
17.01
21.3
24.48
26.64
27.9
28.38
28.27
27.73
26.91
25.91
24.81
23.69
22.57
21.49
20.44
19.38
18.26
17.04
15.7
14.2
12.55
10.71
8.64
6.23
3.4
0.14
-3.43
-7.06
-10.48
-13.51
-16.17
-18.7
-21.42
-24.64
-28.53
-33.12
-38.2
-43.36
-47.91
-51.01
-51.81
-49.77
-44.87
-37.67
-29.09
-20.11
-11.45
-3.5
3.6
9.75
14.82
18.62
21.07
22.26
22.5
22.15
21.58
21.05
20.72
20.65
20.77
20.95
21.04
20.96
20.69
20.4
20.23
20.17
20.04
19.42
17.98
15.63
12.62
9.46
6.6
4.2
2.02
-0.4
-3.56
-7.78
-13.08
-19.26
-26.01
-32.85
-39.13
-44.07
-46.79
-46.62
-43.35
-37.36
-29.48
-20.76
-12.11
-4.1
3.05
9.31
14.65
19
22.25
24.38
25.48
25.78
25.56
24.96
24.07
22.86
21.29
19.48
17.66
16.15
15.18
14.83
14.92
15.12
15.03
14.31
12.8
10.52
7.66
4.51
1.36
-1.59
-4.29
-6.82
-9.39
-12.23
-15.58
-19.67
-24.63
-30.35
-36.42
-42.02
-46.03
-47.39
-45.44
-40.23
-32.46
-23.27
-13.78
-4.83
3.16
10.07
15.83
20.43
23.86
26.19
27.64
28.47
28.91
29.05
28.86
28.24
27.14
25.57
23.69
21.77
20.05
18.74
17.82
17.1
16.18
14.72
12.53
9.67
6.43
3.18
0.13
-2.72
-5.59
-8.8
-12.62
-17.16
-22.38
-27.99
-33.53
-38.38
-41.84
-43.21
-42.02
-38.19
-32.09
-24.5
-16.41
-8.67
-1.81
4.01
8.88
12.93
16.15
18.38
19.44
19.29
18.07
16.1
13.73
11.22
8.72
6.29
3.93
1.6
-0.74
-3.17
-5.8
-8.74
-12.04
-15.72
-19.72
-24
-28.53
-33.28
-38.29
-43.6
-49.32
-55.61
-62.56
-70.1
-77.84
-85.02
-90.56
-93.34
-92.42
-87.27
-77.9
-64.76
-48.62
-30.39
-11.03
8.5
27.27
44.38
59.11
70.91
79.56
85.08
87.74
87.94
86.2
83.02
78.87
74.18
69.25
64.25
59.27
54.32
49.46
44.73
40.2
35.9
31.77
27.6
23.22
18.51
13.52
8.45
3.54
-1.13
-5.68
-10.46
-15.89
-22.16
-29.09
-36.08
-42.19
-46.4
-47.91
-46.33
-41.76
-34.77
-26.15
-16.77
-7.33
1.67
9.97
17.4
23.83
29.06
32.97
35.49
36.76
37.02
36.59
35.77
34.73
33.53
32.14
30.52
28.62
26.5
24.25
21.97
19.82
17.86
16.1
14.43
12.69
10.68
8.25
5.34
1.97
-1.74
-5.67
-9.63
-13.49
-17.12
-20.61
-24.16
-28.11
-32.8
-38.28
-44.18
-49.67
-53.68
-55.22
-53.74
-49.23
-42.16
-33.32
-23.54
-13.56
-3.96
4.86
12.67
19.39
25.09
29.82
33.61
36.42
38.14
38.73
38.33
37.22
35.78
34.32
33.05
32
31.07
30.09
28.89
27.36
25.45
23.19
20.65
17.96
15.2
12.45
9.7
6.95
4.09
1.01
-2.38
-6.14
-10.16
-14.28
-18.31
-22.13
-25.8
-29.58
-33.83
-38.82
-44.46
-50.22
-55.12
-57.99
-57.83
-54.15
-47.14
-37.56
-26.56
-15.3
-4.69
4.67
12.52
18.88
23.96
28.08
31.52
34.47
36.9
38.67
39.57
39.54
38.69
37.27
35.59
33.91
32.36
31
29.8
28.7
27.57
26.23
24.53
22.42
19.91
17.14
14.24
11.24
8.11
4.78
1.27
-2.32
-5.88
-9.32
-12.68
-16.12
-19.82
-23.95
-28.6
-33.77
-39.35
-45
-50.14
-53.93
-55.44
-53.96
-49.21
-41.49
-31.65
-20.76
-9.84
0.33
9.35
17.06
23.41
28.4
32.01
34.29
35.39
35.58
35.19
34.47
33.5
32.15
30.2
27.53
24.26
20.74
17.47
14.84
12.92
11.43
9.84
7.59
4.32
-0.08
-5.38
-11.15
-16.88
-22.09
-26.46
-29.97
-32.88
-35.63
-38.6
-41.94
-45.45
-48.62
-50.78
-51.26
-49.53
-45.26
-38.4
-29.24
-18.42
-6.86
4.41
14.51
22.92
29.44
34.14
37.21
38.87
39.34
38.95
38.06
37
35.99
35.04
34.03
32.78
31.08
28.83
25.99
22.61
18.89
15.14
11.71
8.84
6.56
4.62
2.63
0.19
-2.95
-6.88
-11.62
-17.22
-23.69
-30.92
-38.5
-45.69
-51.53
-55.13
-55.83
-53.42
-48.19
-40.72
-31.81
-22.26
-12.76
-3.8
4.28
11.27
16.94
21.09
23.58
24.46
24.06
22.88
21.45
20.14
19.01
17.83
16.25
14.02
11.07
7.59
3.89
0.31
-2.88
-5.49
-7.44
-8.78
-9.71
-10.56
-11.72
-13.61
-16.45
-20.19
-24.33
-28.08
-30.45
-30.58
-28.05
-22.96
-15.9
-7.75
0.63
8.58
15.6
21.39
25.66
28.2
28.87
27.73
25.06
21.34
17.18
13.17
9.8
7.3
5.64
4.54
3.63
2.58
1.26
-0.31
-1.96
-3.6
-5.25
-7.14
-9.54
-12.74
-16.91
-22.03
-27.89
-34.05
-39.8
-44.31
-46.74
-46.45
-43.22
-37.34
-29.5
-20.7
-11.96
-4.02
2.7
8.18
12.64
16.3
19.2
21.22
22.14
21.92
20.81
19.28
17.91
17.02
16.57
16.26
15.67
14.55
12.93
11.07
9.26
7.67
6.23
4.67
2.66
-0.11
-3.82
-8.53
-14.18
-20.55
-27.23
-33.55
-38.6
-41.32
-40.79
-36.49
-28.53
-17.68
-5.22
7.45
19.14
29.07
36.92
42.68
46.56
48.78
49.64
49.44
48.49
47.08
45.44
43.74
42.07
40.51
39.14
38.05
37.2
36.5
35.8
34.93
33.81
32.43
30.86
29.1
27.13
24.86
22.33
19.64
17.03
14.72
12.78
11.06
9.25
7.07
4.37
1.27
-1.97
-5.08
-7.91
-10.5
-13.07
-15.87
-19.1
-22.8
-26.85
-31.03
-35.06
-38.73
-41.87
-44.46
-46.57
-48.44
-50.38
-52.81
-56.03
-60.11
-64.66
-68.83
-71.41
-71.16
-67.3
-59.7
-48.96
-36.27
-22.95
-10.2
1.22
10.95
19.01
25.62
31.07
35.61
39.32
42.16
44.05
44.95
44.99
44.41
43.54
42.66
41.89
41.24
40.64
39.99
39.26
38.47
37.63
36.75
35.82
34.81
33.67
32.38
30.94
29.33
27.53
25.43
22.8
19.4
15.02
9.66
3.64
-2.55
-8.32
-13.26
-17.28
-20.57
-23.52
-26.5
-29.79
-33.54
-37.83
-42.72
-48.17
-53.91
-59.33
-63.43
-65.09
-63.33
-57.72
-48.61
-37.04
-24.45
-12.19
-1.17
8.32
16.38
23.3
29.26
34.23
38.12
40.9
42.74
43.92
44.7
45.15
45.14
44.42
42.81
40.4
37.48
34.52
31.92
29.89
28.36
27.06
25.64
23.81
21.47
18.71
15.74
12.81
10.03
7.4
4.78
2
-1.09
-4.54
-8.29
-12.12
-15.79
-19.07
-21.84
-24.16
-26.24
-28.41
-31.01
-34.29
-38.34
-43.02
-47.87
-52.11
-54.83
-55.09
-52.23
-46.12
-37.21
-26.53
-15.35
-4.86
4.12
11.26
16.65
20.57
23.35
25.22
26.35
26.91
27.1
27.13
27.14
27.13
26.95
26.41
25.37
23.87
22.12
20.41
19.01
18.07
17.55
17.26
16.94
16.33
15.25
13.66
11.63
9.35
7.03
4.82
2.81
0.92
-1
-3.15
-5.66
-8.53
-11.6
-14.63
-17.44
-19.96
-22.35
-24.88
-27.79
-31.19
-34.95
-38.74
-42.02
-44.24
-44.9
-43.6
-40.17
-34.69
-27.52
-19.28
-10.7
-2.53
4.63
10.43
14.77
17.72
19.49
20.28
20.29
19.71
18.75
17.62
16.52
15.59
14.83
14.17
13.5
12.76
12
11.32
10.76
10.26
9.63
8.64
7.18
5.29
3.15
0.96
-1.15
-3.16
-5.09
-6.99
-8.8
-10.44
-11.88
-13.25
-14.75
-16.62
-19.05
-22.07
-25.51
-29.08
-32.31
-34.62
-35.43
-34.27
-31
-25.86
-19.45
-12.53
-5.8
0.3
5.56
9.93
13.41
15.97
17.6
18.43
18.64
18.46
18.1
17.6
16.93
16.05
14.95
13.7
12.38
11.05
9.74
8.43
7.13
5.82
4.54
3.32
2.16
1
-0.27
-1.74
-3.45
-5.4
-7.48
-9.57
-11.58
-13.54
-15.55
-17.73
-20.19
-22.98
-26.06
-29.36
-32.64
-35.57
-37.65
-38.31
-37.11
-33.9
-28.89
-22.61
-15.7
-8.79
-2.3
3.47
8.36
12.27
15.14
16.96
17.88
18.05
17.74
17.15
16.4
15.61
14.81
14.03
13.26
12.46
11.56
10.52
9.37
8.18
7.06
6.06
5.12
4.1
2.84
1.24
-0.67
-2.8
-5.02
-7.23
-9.36
-11.4
-13.33
-15.21
-17.16
-19.44
-22.26
-25.68
-29.44
-32.94
-35.41
-36.11
-34.64
-31.01
-25.63
-19.12
-12.15
-5.29
1.04
6.55
11.05
14.43
16.64
17.74
17.91
17.42
16.6
15.76
15.04
14.48
13.98
13.41
12.67
11.76
10.77
9.8
8.94
8.17
7.42
6.63
5.74
4.69
3.5
2.2
0.82
-0.65
-2.24
-4.01
-6.04
-8.35
-10.93
-13.76
-16.86
-20.22
-23.81
-27.41
-30.62
-32.9
-33.73
-32.77
-30.03
-25.83
-20.65
-15.03
-9.33
-3.81
1.38
6.12
10.24
13.59
16.06
17.65
18.49
18.83
18.88
18.8
18.6
18.21
17.48
16.36
14.87
13.22
11.64
10.37
9.48
8.89
8.37
7.64
6.46
4.73
2.49
-0.1
-2.85
-5.53
-8.06
-10.43
-12.76
-15.27
-18.16
-21.58
-25.45
-29.43
-32.96
-35.34
-35.97
-34.48
-30.89
-25.56
-19.09
-12.1
-5.16
1.35
7.11
11.89
15.56
18.04
19.36
19.68
19.28
18.42
17.4
16.39
15.48
14.7
13.97
13.23
12.44
11.58
10.69
9.73
8.59
7.09
5.1
2.62
-0.12
-2.83
-5.22
-7.22
-8.97
-10.77
-12.98
-15.83
-19.46
-23.72
-28.25
-32.41
-35.38
-36.38
-34.85
-30.74
-24.44
-16.76
-8.62
-0.8
6.14
11.93
16.49
19.9
22.33
24.04
25.24
26.08
26.6
26.76
26.49
25.76
24.64
23.23
21.66
20.1
18.67
17.47
16.47
15.53
14.43
12.94
10.95
8.48
5.67
2.59
-0.68
-4.17
-7.88
-11.8
-15.96
-20.41
-25.22
-30.34
-35.38
-39.63
-42.19
-42.26
-39.5
-34.21
-27.08
-19.05
-10.9
-3.18
3.78
9.78
14.64
18.24
20.56
21.72
21.93
21.41
20.36
18.91
17.15
15.17
13.14
11.25
9.72
8.66
8.1
7.86
7.71
7.36
6.65
5.57
4.2
2.66
0.99
-0.89
-3.1
-5.75
-8.87
-12.47
-16.53
-20.99
-25.69
-30.24
-33.96
-36.08
-35.93
-33.25
-28.27
-21.65
-14.21
-6.68
0.41
6.78
12.27
16.81
20.32
22.81
24.33
24.99
24.98
24.47
23.63
22.62
21.51
20.34
19.11
17.86
16.67
15.63
14.79
14.07
13.28
12.15
10.47
8.17
5.38
2.38
-0.5
-3.03
-5.15
-7.06
-9.12
-11.74
-15.23
-19.66
-24.82
-30.22
-35.24
-39.14
-41.25
-41.01
-38.1
-32.59
-24.96
-16.03
-6.79
1.88
9.34
15.35
19.88
23.08
25.12
26.17
26.41
26.02
25.18
24.01
22.55
20.85
18.97
17.08
15.37
14.01
13.11
12.63
12.44
12.31
11.97
11.15
9.66
7.47
4.71
1.67
-1.37
-4.22
-6.82
-9.26
-11.68
-14.27
-17.24
-20.82
-25.14
-30.11
-35.27
-39.76
-42.54
-42.68
-39.71
-33.74
-25.46
-15.89
-6.1
3
10.83
17.12
21.86
25.21
27.4
28.62
29.04
28.79
27.96
26.68
25.05
23.26
21.47
19.87
18.6
17.77
17.31
17.01
16.53
15.52
13.72
11.07
7.73
3.98
0.17
-3.45
-6.78
-9.91
-13.08
-16.62
-20.81
-25.67
-30.95
-35.97
-39.87
-41.75
-40.96
-37.31
-31.11
-23.11
-14.22
-5.4
2.65
9.47
14.89
19
21.96
23.95
25.13
25.61
25.47
24.85
23.88
22.7
21.38
19.96
18.45
16.85
15.29
13.86
12.62
11.48
10.21
8.52
6.21
3.28
-0.06
-3.44
-6.55
-9.25
-11.66
-14.21
-17.4
-21.67
-27.11
-33.32
-39.45
-44.37
-47.02
-46.66
-43.09
-36.62
-27.96
-18.06
-7.9
1.66
9.96
16.69
21.8
25.43
27.83
29.22
29.73
29.46
28.51
27.04
25.26
23.37
21.5
19.7
17.99
16.38
14.93
13.74
12.91
12.51
12.45
12.52
12.36
11.58
9.89
7.25
3.88
0.21
-3.34
-6.53
-9.39
-12.23
-15.43
-19.34
-24.15
-29.78
-35.91
-41.88
-46.78
-49.55
-49.36
-45.82
-39.26
-30.53
-20.79
-11.05
-1.97
6.18
13.31
19.35
24.13
27.47
29.27
29.62
28.81
27.23
25.26
23.25
21.46
20.02
18.94
18.09
17.33
16.57
15.82
15.2
14.82
14.74
14.85
14.98
14.86
14.27
13.08
11.31
9.06
6.5
3.65
0.44
-3.33
-7.86
-13.19
-19.16
-25.45
-31.74
-37.72
-43.12
-47.5
-50.16
-50.25
-47.01
-40.23
-30.4
-18.67
-6.45
5.02
15
23.29
29.98
35.24
39.12
41.62
42.83
42.97
42.35
41.3
39.95
38.27
36.11
33.34
30.02
26.43
22.97
20.1
18.11
16.97
16.34
15.69
14.53
12.58
9.87
6.65
3.26
-0.09
-3.37
-6.72
-10.31
-14.37
-19.07
-24.47
-30.45
-36.58
-42.05
-45.85
-47
-44.96
-39.83
-32.37
-23.74
-15.16
-7.53
-1.3
3.54
7.23
10.05
12.17
13.62
14.3
14.14
13.22
11.81
10.35
9.23
8.71
8.84
9.41
10.19
10.99
11.71
12.36
12.92
13.27
13.21
12.5
10.91
8.31
4.71
0.24
-4.87
-10.48
-16.46
-22.74
-29.12
-35.16
-40.03
-42.7
-42.27
-38.31
-31.11
-21.64
-11.17
-0.86
8.51
16.59
23.33
28.73
32.76
35.34
36.43
36.09
34.5
31.9
28.61
24.93
21.17
17.64
14.57
12.17
10.42
9.18
8.19
7.11
5.7
3.8
1.48
-1.1
-3.72
-6.28
-8.86
-11.74
-15.28
-19.78
-25.29
-31.48
-37.65
-42.85
-46.05
-46.38
-43.4
-37.15
-28.23
-17.6
-6.4
4.26
13.56
21.02
26.56
30.41
32.96
34.58
35.49
35.79
35.47
34.56
33.2
31.55
29.82
28.04
26.19
24.18
21.99
19.65
17.21
14.65
11.85
8.67
5.09
1.27
-2.48
-5.91
-8.93
-11.76
-14.78
-18.42
-22.95
-28.37
-34.34
-40.19
-44.99
-47.68
-47.39
-43.72
-36.9
-27.77
-17.49
-7.2
2.3
10.56
17.47
23.06
27.38
30.49
32.5
33.57
33.91
33.72
33.18
32.41
31.46
30.31
28.86
27.06
24.94
22.65
20.49
18.66
17.22
15.9
14.31
12.02
8.82
4.83
0.39
-4.04
-8.1
-11.57
-14.46
-16.91
-19.16
-21.53
-24.35
-27.93
-32.38
-37.49
-42.64
-46.85
-49.05
-48.41
-44.65
-38.12
-29.7
-20.39
-11.1
-2.37
5.59
12.72
18.94
24.02
27.67
29.67
30.08
29.22
27.56
25.55
23.46
21.35
19.2
17.06
15.09
13.5
12.41
11.64
10.87
9.66
7.84
5.48
2.95
0.64
-1.21
-2.64
-3.96
-5.61
-8.01
-11.41
-15.86
-21.14
-26.74
-31.95
-35.94
-37.86
-37.13
-33.58
-27.5
-19.65
-11.04
-2.59
5.01
11.43
16.65
20.75
23.77
25.7
26.53
26.35
25.39
23.91
22.12
20.15
18.06
15.93
13.95
12.32
11.17
10.45
9.95
9.32
8.26
6.56
4.2
1.34
-1.73
-4.69
-7.29
-9.48
-11.48
-13.68
-16.53
-20.28
-24.9
-29.96
-34.75
-38.39
-40
-38.99
-35.11
-28.65
-20.33
-11.17
-2.16
5.93
12.66
17.88
21.58
23.88
24.97
25.13
24.73
24.12
23.5
22.91
22.23
21.35
20.28
19.11
17.95
16.85
15.74
14.5
13.07
11.41
9.57
7.57
5.42
3.09
0.57
-2.2
-5.32
-8.9
-13.11
-18.02
-23.51
-29.2
-34.45
-38.43
-40.34
-39.56
-35.84
-29.45
-21.16
-12
-3.09
4.73
11.07
15.96
19.69
22.61
24.87
26.47
27.31
27.27
26.39
24.86
22.91
20.76
18.57
16.44
14.41
12.59
11.03
9.71
8.49
7.07
5.21
2.74
-0.24
-3.45
-6.51
-9.16
-11.41
-13.51
-15.86
-18.87
-22.75
-27.45
-32.59
-37.47
-41.17
-42.78
-41.57
-37.32
-30.41
-21.71
-12.35
-3.38
4.51
10.97
15.94
19.5
21.79
22.96
23.22
22.85
22.12
21.24
20.28
19.23
18.01
16.55
14.8
12.77
10.51
8.19
5.97
4.05
2.48
1.16
-0.15
-1.71
-3.67
-6.03
-8.64
-11.37
-14.24
-17.4
-21.03
-25.19
-29.59
-33.59
-36.37
-37.14
-35.47
-31.44
-25.55
-18.61
-11.39
-4.47
1.89
7.61
12.61
16.76
19.79
21.49
21.84
21.02
19.4
17.36
15.22
13.15
11.24
9.56
8.16
7.08
6.29
5.65
4.97
4.06
2.77
1.1
-0.9
-3.13
-5.44
-7.77
-10.09
-12.5
-15.18
-18.38
-22.19
-26.5
-30.87
-34.54
-36.65
-36.48
-33.7
-28.47
-21.44
-13.46
-5.43
1.91
8.07
12.81
16.1
18.04
18.81
18.65
17.82
16.54
15.01
13.39
11.79
10.32
9.02
7.86
6.76
5.62
4.41
3.16
1.95
0.82
-0.26
-1.45
-2.86
-4.57
-6.52
-8.6
-10.77
-13.09
-15.8
-19.16
-23.27
-27.9
-32.45
-36.05
-37.84
-37.25
-34.1
-28.72
-21.77
-14.05
-6.29
0.96
7.39
12.94
17.58
21.36
24.27
26.23
27.19
27.16
26.26
24.75
23
21.3
19.87
18.75
17.86
17.11
16.43
15.75
15
14.04
12.69
10.85
8.54
5.88
3.05
0.23
-2.5
-5.11
-7.61
-10.02
-12.39
-14.87
-17.72
-21.18
-25.34
-30.07
-34.83
-38.89
-41.43
-41.82
-39.75
-35.32
-28.95
-21.33
-13.19
-5.22
2.07
8.38
13.57
17.64
20.65
22.73
24.04
24.73
24.98
24.87
24.46
23.84
23.19
22.75
22.73
23.22
24.04
24.83
25.12
24.56
23.06
20.72
17.77
14.41
10.74
6.76
2.49
-2.02
-6.53
-10.78
-14.51
-17.65
-20.37
-23.1
-26.3
-30.31
-35.01
-39.87
-44.04
-46.65
-47.08
-45.12
-40.98
-35.12
-28.13
-20.67
-13.34
-6.6
-0.73
4.24
8.45
12.08
15.18
17.67
19.41
20.35
20.65
20.57
20.35
20.1
19.79
19.33
18.7
17.94
17.22
16.66
16.28
15.97
15.54
14.7
13.17
10.84
7.78
4.33
0.96
-1.95
-4.27
-6.18
-8.11
-10.51
-13.7
-17.77
-22.55
-27.6
-32.22
-35.64
-37.05
-35.94
-32.22
-26.29
-18.9
-10.97
-3.25
3.69
9.52
14.13
17.52
19.82
21.25
22.04
22.42
22.52
22.39
22.09
21.7
21.25
20.76
20.18
19.43
18.46
17.37
16.26
15.29
14.51
13.88
13.25
12.44
11.23
9.47
7.13
4.33
1.38
-1.38
-3.71
-5.63
-7.41
-9.41
-11.98
-15.21
-19.09
-23.47
-28.21
-33.07
-37.59
-41.04
-42.54
-41.43
-37.58
-31.48
-24.1
-16.46
-9.34
-3.12
2.15
6.58
10.26
13.27
15.66
17.46
18.72
19.43
19.57
19.13
18.21
17.02
15.78
14.67
13.75
12.98
12.33
11.8
11.42
11.19
11
10.63
9.81
8.36
6.3
3.85
1.31
-1.04
-3.14
-5.11
-7.26
-9.88
-13.16
-17.07
-21.35
-25.6
-29.26
-31.77
-32.62
-31.46
-28.23
-23.2
-16.91
-10.07
-3.38
2.67
7.79
11.88
14.96
17.06
18.22
18.45
17.89
16.74
15.29
13.78
12.41
11.27
10.35
9.64
9.11
8.74
8.47
8.2
7.73
6.86
5.48
3.61
1.47
-0.68
-2.66
-4.5
-6.48
-8.94
-12.22
-16.33
-20.94
-25.41
-29
-31.06
-31.21
-29.41
-25.86
-20.96
-15.19
-9.02
-2.91
2.73
7.58
11.42
14.17
15.84
16.48
16.21
15.14
13.41
11.21
8.8
6.47
4.45
2.92
1.85
1.07
0.31
-0.67
-2
-3.64
-5.42
-7.19
-8.92
-10.68
-12.65
-14.96
-17.7
-20.87
-24.42
-28.16
-31.76
-34.62
-36
-35.19
-31.86
-26.2
-18.91
-11
-3.38
3.33
8.94
13.52
17.17
19.97
21.85
22.75
22.64
21.63
19.98
18.02
16.07
14.32
12.84
11.54
10.31
9.02
7.65
6.26
4.92
3.62
2.27
0.69
-1.3
-3.78
-6.78
-10.3
-14.36
-18.93
-23.82
-28.64
-32.71
-35.28
-35.73
-33.77
-29.54
-23.51
-16.34
-8.68
-1.12
5.87
11.97
16.99
20.88
23.76
25.81
27.18
27.96
28.13
27.67
26.62
25.13
23.44
21.8
20.41
19.32
18.44
17.56
16.47
15.05
13.26
11.17
8.84
6.27
3.39
0.12
-3.55
-7.52
-11.66
-15.88
-20.19
-24.59
-28.98
-33
-36
-37.26
-36.2
-32.65
-26.9
-19.58
-11.46
-3.21
4.68
11.92
18.32
23.72
27.96
30.9
32.46
32.74
32.01
30.66
29.17
27.88
26.98
26.44
26.11
25.77
25.25
24.46
23.41
22.17
20.8
19.35
17.75
15.87
13.57
10.79
7.65
4.41
1.35
-1.34
-3.73
-6.05
-8.56
-11.45
-14.72
-18.3
-22.1
-26.04
-29.94
-33.45
-35.93
-36.71
-35.28
-31.54
-25.89
-18.99
-11.63
-4.39
2.42
8.67
14.31
19.27
23.39
26.47
28.42
29.27
29.22
28.63
27.84
27.16
26.7
26.46
26.31
26.16
25.96
25.74
25.52
25.26
24.83
24.07
22.85
21.14
19.02
16.65
14.2
11.8
9.52
7.34
5.15
2.8
0.16
-2.79
-5.91
-8.96
-11.73
-14.22
-16.67
-19.45
-22.89
-26.99
-31.39
-35.33
-37.88
-38.07
-35.22
-29.09
-19.95
-8.62
3.71
15.75
26.35
34.77
40.69
44.16
45.43
44.81
42.56
38.96
34.32
29.01
23.41
17.92
12.79
8.2
4.13
0.52
-2.68
-5.42
-7.57
-9.01
-9.74
-9.95
-9.97
-10.14
-10.65
-11.53
-12.63
-13.8
-14.91
-15.96
-17.03
-18.25
-19.78
-21.72
-24.1
-26.72
-29.17
-30.91
-31.35
-30.1
-27.07
-22.51
-16.97
-11.03
-5.28
-0.13
4.21
7.68
10.37
12.35
13.72
14.49
14.67
14.31
13.55
12.63
11.79
11.21
10.88
10.73
10.6
10.35
9.9
9.17
8.12
6.69
4.86
2.65
0.11
-2.68
-5.69
-8.85
-12.14
-15.49
-18.81
-22.03
-25.15
-28.23
-31.34
-34.45
-37.37
-39.7
-40.89
-40.44
-38.06
-33.82
-28.13
-21.69
-15.2
-9.2
-3.89
0.79
5.05
9.05
12.8
16.15
18.89
20.85
21.98
22.34
22.07
21.35
20.39
19.46
18.77
18.5
18.7
19.24
19.85
20.22
20.07
19.24
17.78
15.86
13.78
11.8
10.08
8.58
7.16
5.57
3.66
1.4
-1.07
-3.59
-6.05
-8.39
-10.7
-13.08
-15.66
-18.51
-21.62
-24.81
-27.75
-29.96
-30.96
-30.43
-28.36
-24.98
-20.7
-15.95
-11.03
-6.16
-1.47
2.91
6.9
10.43
13.45
15.95
17.86
19.09
19.64
19.64
19.37
19.13
19.18
19.58
20.19
20.79
21.2
21.32
21.12
20.55
19.59
18.22
16.48
14.48
12.36
10.21
8.01
5.72
3.28
0.67
-1.99
-4.6
-7.06
-9.37
-11.57
-13.76
-15.98
-18.23
-20.49
-22.78
-25.14
-27.58
-29.91
-31.72
-32.43
-31.47
-28.53
-23.78
-17.85
-11.62
-5.89
-1.17
2.41
5
6.8
7.96
8.54
8.65
8.45
8.24
8.25
8.65
9.36
10.19
10.89
11.29
11.35
11.18
10.93
10.81
10.95
11.38
11.96
12.41
12.44
11.86
10.67
9.09
7.43
5.94
4.66
3.51
2.31
0.97
-0.55
-2.21
-4.06
-6.19
-8.73
-11.73
-15.02
-18.25
-20.93
-22.58
-22.85
-21.64
-19.11
-15.59
-11.52
-7.27
-3.11
0.76
4.26
7.31
9.83
11.83
13.38
14.63
15.69
16.52
16.91
16.56
15.27
13.14
10.57
8.19
6.6
6.05
6.3
6.79
6.79
5.82
3.79
1.1
-1.67
-4
-5.61
-6.59
-7.27
-7.98
-8.98
-10.38
-12.22
-14.53
-17.33
-20.5
-23.74
-26.49
-28.11
-28.1
-26.24
-22.68
-17.93
-12.65
-7.48
-2.89
0.87
3.76
5.93
7.53
8.69
9.39
9.5
8.88
7.55
5.77
3.98
2.7
2.24
2.67
3.75
5.1
6.39
7.36
7.88
7.91
7.52
6.8
5.9
4.9
3.81
2.55
1.01
-0.83
-2.91
-5.08
-7.19
-9.14
-10.84
-12.27
-13.39
-14.29
-15.2
-16.53
-18.58
-21.37
-24.44
-26.88
-27.74
-26.4
-22.88
-17.82
-12.24
-7.02
-2.74
0.52
2.98
4.99
6.86
8.78
10.75
12.7
14.5
16.04
17.18
17.79
17.73
16.85
15.13
12.79
10.23
8.02
6.61
6.11
6.28
6.55
6.29
5.13
3.02
0.29
-2.61
-5.24
-7.31
-8.73
-9.57
-10.08
-10.62
-11.67
-13.64
-16.69
-20.53
-24.48
-27.59
-28.99
-28.17
-25.16
-20.48
-14.92
-9.24
-4
0.58
4.46
7.77
10.56
12.79
14.36
15.14
15.09
14.34
13.1
11.7
10.4
9.43
8.91
8.83
9.06
9.38
9.54
9.35
8.74
7.88
6.99
6.31
5.93
5.78
5.64
5.26
4.51
3.37
1.95
0.38
-1.21
-2.8
-4.42
-6.26
-8.48
-11.21
-14.42
-17.84
-21.02
-23.41
-24.59
-24.31
-22.62
-19.77
-16.13
-12.11
-8.08
-4.37
-1.14
1.53
3.72
5.52
7.04
8.3
9.28
9.94
10.33
10.49
10.54
10.52
10.45
10.28
9.97
9.5
8.94
8.36
7.85
7.5
7.36
7.38
7.45
7.37
6.94
5.98
4.43
2.33
-0.14
-2.81
-5.45
-7.91
-10.14
-12.22
-14.38
-16.82
-19.61
-22.49
-24.93
-26.26
-25.99
-23.99
-20.55
-16.22
-11.57
-6.99
-2.64
1.43
5.15
8.39
10.95
12.7
13.64
13.94
13.86
13.7
13.65
13.76
13.95
14.04
13.88
13.45
12.88
12.36
12.01
11.74
11.29
10.38
8.88
6.92
4.77
2.74
0.98
-0.48
-1.74
-2.94
-4.15
-5.5
-7.13
-9.22
-11.82
-14.78
-17.7
-20.04
-21.28
-21.1
-19.45
-16.51
-12.63
-8.23
-3.76
0.44
4.13
7.21
9.69
11.61
13.01
13.86
14.18
14.04
13.57
12.96
12.33
11.72
11.04
10.21
9.21
8.15
7.19
6.46
5.93
5.38
4.5
3
0.84
-1.78
-4.41
-6.58
-8.04
-8.88
-9.45
-10.27
-11.75
-14.07
-17.11
-20.46
-23.54
-25.7
-26.29
-24.9
-21.5
-16.54
-10.77
-5.1
-0.25
3.48
6.14
7.98
9.15
9.71
9.59
8.88
7.83
6.84
6.26
6.26
6.68
7.23
7.59
7.6
7.28
6.75
6.15
5.53
4.82
3.87
2.56
0.81
-1.32
-3.59
-5.68
-7.37
-8.61
-9.67
-10.99
-13.01
-15.96
-19.63
-23.43
-26.5
-28.03
-27.43
-24.6
-19.9
-13.98
-7.61
-1.51
3.79
8.04
11.15
13.24
14.58
15.55
16.55
17.87
19.47
20.98
21.8
21.38
19.55
16.63
13.36
10.57
8.78
8.09
8.12
8.31
8.22
7.7
6.87
5.99
5.2
4.4
3.3
1.55
-1.08
-4.47
-8.26
-11.94
-15.13
-17.72
-19.89
-21.81
-23.5
-24.69
-24.82
-23.35
-20
-14.86
-8.38
-1.27
5.74
12.06
17.3
21.28
24.05
25.76
26.63
26.87
26.63
26.05
25.22
24.25
23.24
22.23
21.26
20.33
19.41
18.54
17.69
16.88
16.06
15.24
14.35
13.36
12.18
10.64
8.6
5.97
2.87
-0.46
-3.65
-6.43
-8.73
-10.72
-12.75
-15.15
-18.15
-21.73
-25.67
-29.48
-32.6
-34.46
-34.62
-32.89
-29.37
-24.45
-18.61
-12.35
-6.06
0.02
5.66
10.69
14.98
18.45
21.1
23.04
24.33
25.04
25.2
24.82
24
22.87
21.63
20.43
19.37
18.47
17.67
16.88
15.99
14.94
13.68
12.22
10.61
8.88
7.08
5.21
3.28
1.28
-0.82
-2.99
-5.17
-7.27
-9.22
-11
-12.77
-14.76
-17.29
-20.41
-23.83
-26.92
-28.85
-28.97
-27.04
-23.3
-18.35
-12.9
-7.48
-2.41
2.19
6.27
9.77
12.61
14.75
16.21
17.05
17.4
17.39
17.12
16.67
16.03
15.16
14.04
12.77
11.58
10.77
10.51
10.7
10.99
10.88
9.99
8.26
6.01
3.66
1.57
-0.15
-1.66
-3.26
-5.19
-7.62
-10.6
-14.11
-17.99
-21.93
-25.41
-27.84
-28.65
-27.58
-24.68
-20.29
-14.97
-9.3
-3.76
1.26
5.5
8.83
11.23
12.79
13.66
13.94
13.73
13.08
12.05
10.75
9.35
8.01
6.87
5.95
5.18
4.44
3.61
2.63
1.55
0.47
-0.53
-1.47
-2.47
-3.69
-5.25
-7.1
-9.13
-11.16
-13.19
-15.36
-17.88
-20.84
-23.99
-26.79
-28.5
-28.5
-26.5
-22.68
-17.48
-11.56
-5.54
0.15
5.24
9.61
13.19
15.9
17.64
18.36
18.14
17.2
15.93
14.67
13.68
12.98
12.48
11.99
11.4
10.66
9.78
8.72
7.42
5.84
3.99
2.01
0.05
-1.81
-3.6
-5.45
-7.5
-9.89
-12.64
-15.77
-19.18
-22.65
-25.69
-27.72
-28.12
-26.53
-23.04
-18.16
-12.62
-7.14
-2.14
2.23
6.02
9.3
12.09
14.29
15.83
16.7
16.93
16.61
15.84
14.73
13.44
12.14
10.95
9.95
9.13
8.38
7.64
6.8
5.79
4.51
2.91
0.94
-1.3
-3.68
-6.06
-8.41
-10.85
-13.62
-16.95
-20.83
-24.97
-28.75
-31.41
-32.29
-30.99
-27.58
-22.48
-16.36
-9.9
-3.61
2.23
7.48
12.04
15.8
18.62
20.49
21.57
22.11
22.34
22.36
22.12
21.5
20.47
19.17
17.85
16.77
16.06
15.69
15.46
15.14
14.53
13.47
11.91
9.83
7.33
4.57
1.8
-0.77
-3.01
-4.93
-6.74
-8.71
-11.21
-14.5
-18.7
-23.54
-28.43
-32.55
-35
-35.19
-33.01
-28.86
-23.43
-17.47
-11.53
-5.88
-0.64
4.13
8.29
11.67
14.15
15.82
16.84
17.42
17.66
17.47
16.75
15.5
13.94
12.38
11.16
10.42
10.06
9.88
9.62
9.18
8.56
7.89
7.24
6.61
5.91
4.99
3.7
1.9
-0.48
-3.47
-7
-10.82
-14.46
-17.37
-18.99
-18.96
-17.23
-14.04
-9.92
-5.49
-1.26
2.5
5.78
8.72
11.49
14.13
16.51
18.41
19.61
20.06
19.84
19.14
18.15
17.01
15.77
14.48
13.18
11.96
10.9
10.03
9.31
8.67
7.96
7.07
5.93
4.58
3.15
1.86
0.92
0.4
0.16
-0.16
-1
-2.73
-5.47
-9.02
-12.98
-16.9
-20.48
-23.6
-26.18
-28.07
-28.93
-28.4
-26.19
-22.32
-17.2
-11.47
-5.75
-0.46
4.26
8.49
12.32
15.65
18.27
19.95
20.58
20.31
19.49
18.6
17.99
17.8
17.9
18.01
17.84
17.25
16.26
15.02
13.68
12.3
10.81
9.11
7.1
4.76
2.17
-0.51
-3.07
-5.31
-7.1
-8.41
-9.37
-10.27
-11.48
-13.37
-16.16
-19.81
-23.96
-27.97
-30.99
-32.18
-30.9
-26.95
-20.69
-12.92
-4.72
2.97
9.48
14.62
18.45
21.26
23.35
24.98
26.34
27.56
28.69
29.65
30.3
30.45
29.97
28.89
27.32
25.43
23.35
21.11
18.68
16.01
13.07
9.95
6.7
3.43
0.2
-2.94
-5.94
-8.79
-11.54
-14.31
-17.25
-20.44
-23.83
-27.13
-29.86
-31.51
-31.63
-30
-26.7
-22.06
-16.57
-10.8
-5.23
-0.26
3.85
6.97
9.03
10.08
10.31
10.03
9.62
9.49
9.89
10.82
12.1
13.39
14.37
14.85
14.8
14.26
13.32
12.04
10.48
8.65
6.53
4.13
1.45
-1.37
-4.14
-6.65
-8.77
-10.6
-12.46
-14.74
-17.69
-21.21
-24.82
-27.8
-29.51
-29.54
-27.92
-24.97
-21.19
-17.03
-12.85
-8.88
-5.28
-2.17
0.38
2.31
3.67
4.52
4.91
4.91
4.55
3.9
3.09
2.26
1.56
1.11
0.91
0.92
1.06
1.26
1.45
1.55
1.49
1.15
0.51
-0.38
-1.37
-2.3
-3.08
-3.77
-4.55
-5.68
-7.37
-9.81
-13
-16.78
-20.7
-24.13
-26.37
-26.89
-25.54
-22.59
-18.63
-14.26
-9.89
-5.66
-1.58
2.34
5.91
8.88
11.06
12.46
13.28
13.75
14.06
14.26
14.3
14.09
13.55
12.65
11.41
9.98
8.56
7.45
6.88
6.91
7.37
7.91
8.14
7.74
6.59
4.78
2.55
0.21
-1.97
-3.75
-5.11
-6.17
-7.24
-8.67
-10.69
-13.27
-16.16
-18.84
-20.76
-21.41
-20.48
-17.99
-14.27
-9.97
-5.82
-2.44
-0.08
1.34
2.11
2.56
2.91
3.25
3.63
4.2
5.09
6.37
7.9
9.33
10.29
10.52
9.97
8.8
7.27
5.63
4.06
2.73
1.69
0.92
0.22
-0.66
-2.03
-4.01
-6.57
-9.5
-12.54
-15.47
-18.1
-20.18
-21.43
-21.55
-20.36
-17.95
-14.6
-10.7
-6.63
-2.61
1.26
4.92
8.34
11.44
14.2
16.62
18.64
20.15
21.02
21.16
20.6
19.57
18.37
17.21
16.16
15.12
13.95
12.49
10.68
8.47
5.93
3.17
0.39
-2.12
-4.16
-5.66
-6.79
-7.84
-9.16
-10.97
-13.28
-15.98
-18.75
-21.22
-22.93
-23.49
-22.63
-20.37
-17.03
-13.04
-8.84
-4.69
-0.7
3.12
6.75
10.1
13.01
15.36
17.09
18.21
18.8
18.92
18.63
17.99
17.1
16.06
14.99
13.93
12.88
11.78
10.53
9.08
7.39
5.49
3.45
1.36
-0.73
-2.79
-4.86
-7.07
-9.56
-12.49
-15.96
-19.94
-24.22
-28.36
-31.78
-33.93
-34.42
-33.15
-30.31
-26.3
-21.62
-16.72
-12.01
-7.67
-3.84
-0.5
2.36
4.74
6.56
7.68
8.02
7.6
6.7
5.71
5.12
5.29
6.28
7.93
9.78
11.36
12.29
12.45
11.93
10.96
9.74
8.36
6.79
4.95
2.8
0.38
-2.22
-4.89
-7.48
-9.81
-11.62
-12.57
-12.36
-10.84
-8.1
-4.44
-0.35
3.74
7.53
10.88
13.76
16.16
18.02
19.21
19.62
19.23
18.18
16.71
15.13
13.66
12.43
11.46
10.69
10.12
9.73
9.53
9.46
9.35
8.99
8.19
6.88
5.17
3.27
1.43
-0.23
-1.79
-3.49
-5.68
-8.61
-12.35
-16.69
-21.13
-25.01
-27.65
-28.54
-27.5
-24.72
-20.7
-16.01
-11.19
-6.58
-2.33
1.52
4.94
7.81
10.05
11.58
12.39
12.57
12.25
11.55
10.55
9.34
8.03
6.75
5.59
4.67
3.94
3.28
2.5
1.39
-0.13
-2.02
-4.13
-6.32
-8.49
-10.7
-13.03
-15.57
-18.3
-21.05
-23.58
-25.63
-26.96
-27.33
-26.57
-24.57
-21.34
-17
-11.82
-6.15
-0.37
5.15
10.07
14.08
16.99
18.71
19.34
19.13
18.4
17.48
16.62
15.96
15.52
15.22
14.94
14.5
13.83
12.92
11.84
10.72
9.62
8.49
7.25
5.78
4.06
2.09
-0.01
-2.22
-4.58
-7.23
-10.31
-13.78
-17.35
-20.44
-22.38
-22.61
-20.91
-17.45
-12.8
-7.65
-2.62
1.91
5.79
9
11.53
13.36
14.44
14.87
14.79
14.42
13.94
13.43
12.87
12.19
11.31
10.25
9.12
8.09
7.35
7
6.99
7.13
7.12
6.68
5.7
4.23
2.42
0.42
-1.73
-4.13
-6.92
-10.09
-13.52
-17.02
-20.43
-23.76
-26.99
-30.02
-32.41
-33.53
-32.69
-29.56
-24.28
-17.5
-10.13
-3
3.33
8.71
13.21
17.01
20.19
22.76
24.63
25.76
26.14
25.92
25.34
24.67
24.09
23.61
23.09
22.27
20.96
19.11
16.82
14.33
11.87
9.59
7.54
5.73
4.1
2.61
1.16
-0.4
-2.24
-4.48
-7.13
-10.1
-13.25
-16.49
-19.78
-23.12
-26.5
-29.81
-32.81
-35.14
-36.48
-36.57
-35.35
-32.93
-29.56
-25.52
-21.05
-16.33
-11.53
-6.91
-2.78
0.56
2.96
4.53
5.6
6.65
8.08
10.11
12.74
15.78
18.94
21.88
24.19
25.5
25.58
24.48
22.52
20.17
17.89
15.85
14.01
12.15
10.15
8.05
6.02
4.22
2.61
0.94
-1.11
-3.83
-7.29
-11.39
-15.85
-20.33
-24.43
-27.67
-29.52
-29.5
-27.33
-23.06
-17.14
-10.32
-3.46
2.66
7.53
10.94
12.92
13.67
13.44
12.57
11.43
10.45
9.99
10.21
10.98
11.9
12.48
12.33
11.4
9.88
8.13
6.41
4.85
3.43
2.17
1.2
0.67
0.7
1.2
1.92
2.45
2.41
1.54
-0.3
-3.06
-6.55
-10.41
-14.14
-17.17
-19.03
-19.4
-18.22
-15.65
-12.07
-7.93
-3.74
0.14
3.53
6.47
9.17
11.83
14.53
17.09
19.23
20.6
21.03
20.56
19.41
17.87
16.25
14.77
13.59
12.81
12.45
12.51
12.88
13.44
13.98
14.25
13.98
12.9
10.82
7.65
3.5
-1.39
-6.65
-11.82
-16.45
-20.1
-22.41
-23.2
-22.47
-20.39
-17.29
-13.49
-9.33
-5.07
-0.97
2.69
5.64
7.64
8.59
8.55
7.67
6.22
4.42
2.52
0.69
-0.85
-2
-2.77
-3.38
-4.13
-5.3
-6.94
-8.92
-10.94
-12.82
-14.55
-16.37
-18.58
-21.35
-24.56
-27.77
-30.37
-31.79
-31.67
-29.95
-26.85
-22.77
-18.15
-13.33
-8.54
-3.88
0.58
4.71
8.38
11.4
13.71
15.31
16.28
16.66
16.41
15.47
13.89
11.82
9.63
7.68
6.26
5.45
5.14
5.09
5.07
4.81
4
2.33
-0.48
-4.53
-9.61
-15.25
-20.67
-25.03
-27.54
-27.62
-25.08
-20.12
-13.39
-5.82
1.61
8.09
13.16
16.77
19.07
20.33
20.73
20.44
19.61
18.44
17.14
15.86
14.59
13.15
11.34
9.05
6.33
3.46
0.77
-1.42
-3
-4.05
-4.84
-5.72
-7
-8.86
-11.36
-14.38
-17.69
-20.92
-23.58
-25.22
-25.4
-23.91
-20.81
-16.42
-11.24
-5.79
-0.47
4.49
8.95
12.75
15.71
17.58
18.24
17.79
16.58
15.09
13.82
13.01
12.68
12.6
12.43
11.93
11.01
9.78
8.42
7.06
5.71
4.27
2.6
0.6
-1.71
-4.21
-6.84
-9.54
-12.37
-15.31
-18.18
-20.6
-22.07
-22.15
-20.61
-17.5
-13.11
-7.91
-2.39
2.98
7.81
11.89
15.14
17.63
19.44
20.62
21.18
21.13
20.58
19.74
18.9
18.29
17.93
17.68
17.29
16.51
15.22
13.41
11.19
8.71
6.14
3.66
1.39
-0.66
-2.61
-4.69
-7.16
-10.22
-13.89
-17.99
-22.09
-25.57
-27.72
-27.98
-26.13
-22.4
-17.42
-12
-6.83
-2.3
1.54
4.8
7.58
9.79
11.28
11.92
11.76
11.01
9.99
8.98
8.15
7.58
7.32
7.4
7.77
8.31
8.78
8.95
8.65
7.85
6.63
5.09
3.24
1.01
-1.7
-4.97
-8.75
-12.94
-17.32
-21.55
-25.19
-27.71
-28.56
-27.4
-24.2
-19.3
-13.37
-7.21
-1.55
3.14
6.72
9.39
11.5
13.35
15.06
16.55
17.6
18.06
17.94
17.41
16.67
15.84
14.88
13.72
12.42
11.24
10.54
10.53
11.09
11.74
11.82
10.85
8.68
5.6
2.21
-0.87
-3.25
-4.9
-6.11
-7.39
-9.24
-12.01
-15.69
-19.97
-24.25
-27.79
-29.9
-30.12
-28.28
-24.62
-19.68
-14.12
-8.56
-3.41
1.16
5.15
8.66
11.73
14.35
16.51
18.16
19.28
19.87
19.94
19.52
18.7
17.66
16.63
15.84
15.47
15.54
15.99
16.63
17.21
17.52
17.32
16.46
14.86
12.56
9.74
6.7
3.75
1.16
-0.98
-2.8
-4.57
-6.71
-9.53
-13.19
-17.58
-22.36
-26.99
-30.84
-33.35
-34.11
-32.96
-30.06
-25.79
-20.69
-15.27
-9.93
-4.89
-0.25
3.94
7.63
10.74
13.18
14.87
15.84
16.17
16.04
15.63
15.12
14.6
14.06
13.44
12.69
11.87
11.13
10.64
10.48
10.54
10.53
10.08
8.97
7.18
4.92
2.48
0.1
-2.14
-4.36
-6.74
-9.43
-12.44
-15.7
-19.06
-22.38
-25.48
-28.13
-30.01
-30.7
-29.84
-27.23
-22.98
-17.51
-11.44
-5.4
0.13
4.88
8.74
11.69
13.76
15.06
15.78
16.18
16.51
16.92
17.38
17.74
17.8
17.45
16.75
15.92
15.21
14.77
14.61
14.5
14.12
13.15
11.5
9.22
6.6
3.95
1.51
-0.69
-2.79
-5.02
-7.58
-10.55
-13.9
-17.48
-21.04
-24.23
-26.57
-27.61
-26.92
-24.37
-20.16
-14.79
-8.9
-3.11
2.11
6.48
9.85
12.19
13.55
14.06
13.92
13.32
12.38
11.19
9.78
8.35
7.16
6.55
6.71
7.53
8.65
9.6
10.03
9.85
9.21
8.3
7.26
6.05
4.6
2.92
1.08
-0.82
-2.79
-4.99
-7.6
-10.69
-14.04
-17.13
-19.31
-19.99
-18.88
-16.07
-11.91
-6.97
-1.82
3.06
7.33
10.79
13.33
14.91
15.57
15.41
14.6
13.37
11.95
10.48
9.06
7.72
6.48
5.41
4.52
3.81
3.16
2.4
1.35
-0.05
-1.69
-3.34
-4.77
-5.87
-6.73
-7.61
-8.85
-10.73
-13.37
-16.59
-19.97
-22.88
-24.66
-24.76
-22.91
-19.25
-14.36
-9.02
-4.06
-0.05
2.81
4.64
5.78
6.48
6.89
6.95
6.6
5.88
4.98
4.23
3.91
4.18
4.92
5.83
6.51
6.65
6.1
4.97
3.46
1.78
0.04
-1.82
-3.89
-6.27
-9.01
-12.05
-15.28
-18.47
-21.26
-23.19
-23.83
-22.85
-20.24
-16.31
-11.56
-6.56
-1.72
2.73
6.69
10.07
12.74
14.54
15.34
15.13
14.02
12.17
9.78
7.03
4.11
1.22
-1.44
-3.67
-5.31
-6.3
-6.71
-6.75
-6.75
-7.08
-8.02
-9.77
-12.41
-15.92
-20.19
-24.94
-29.68
-33.75
-36.4
-37.07
-35.56
-32.1
-27.24
-21.59
-15.61
-9.54
-3.52
2.25
7.47
11.75
14.79
16.54
17.17
17.07
16.65
16.25
16.02
15.88
15.62
14.96
13.69
11.8
9.49
7.12
5.03
3.38
2.06
0.78
-0.84
-3.06
-5.95
-9.43
-13.27
-17.17
-20.7
-23.38
-24.71
-24.34
-22.13
-18.32
-13.41
-8.01
-2.67
2.23
6.55
10.29
13.49
16.18
18.29
19.73
20.39
20.22
19.31
17.88
16.21
14.54
12.98
11.54
10.1
8.56
6.9
5.15
3.43
1.78
0.15
-1.64
-3.83
-6.66
-10.28
-14.66
-19.62
-24.79
-29.68
-33.78
-36.71
-38.19
-38.11
-36.5
-33.47
-29.24
-24.12
-18.55
-13.02
-8.04
-4.03
-1.29
0.16
0.4
-0.28
-1.57
-3.25
-5.23
-7.55
-10.33
-13.62
-17.23
-20.7
-23.42
-24.75
-24.32
-22.04
-18.09
-12.79
-6.44
0.63
8.05
15.36
22.1
27.96
32.9
37.19
41.08
44.66
47.57
49.12
48.45
45.01
38.82
30.59
21.55
13.08
6.37
2.12
0.46
1.04
3.29
6.63
10.6
14.9
19.22
23.28
26.75
29.36
30.98
31.72
31.86
31.67
31.38
31.07
30.68
30.08
29.15
27.86
26.29
24.63
23.1
21.85
20.85
19.87
18.58
16.74
14.29
11.39
8.37
5.47
2.8
0.27
-2.28
-4.95
-7.76
-10.66
-13.66
-16.83
-20.26
-23.82
-27.17
-29.72
-30.86
-30.16
-27.58
-23.39
-18.1
-12.31
-6.54
-1.22
3.39
7.18
10.13
12.35
13.98
15.15
16.03
16.79
17.6
18.51
19.47
20.24
20.49
19.97
18.69
16.87
14.9
13.07
11.47
9.98
8.37
6.48
4.29
1.92
-0.49
-2.88
-5.34
-8.06
-11.25
-14.99
-19.14
-23.28
-26.73
-28.76
-28.79
-26.61
-22.48
-17.03
-10.99
-5.06
0.34
4.94
8.64
11.35
13.03
13.68
13.43
12.57
11.41
10.26
9.33
8.71
8.36
8.14
7.89
7.46
6.82
5.97
5.01
4.01
2.96
1.74
0.23
-1.67
-3.96
-6.53
-9.31
-12.23
-15.35
-18.74
-22.38
-26.02
-29.11
-31
-31.04
-28.94
-24.82
-19.2
-12.85
-6.49
-0.58
4.69
9.37
13.52
17.1
19.95
21.87
22.77
22.73
21.98
20.81
19.42
17.97
16.47
14.94
13.38
11.81
10.26
8.78
7.44
6.21
5.03
3.77
2.31
0.51
-1.64
-4.18
-7.17
-10.66
-14.73
-19.29
-23.97
-28.17
-31.17
-32.4
-31.57
-28.77
-24.39
-19.02
-13.27
-7.64
-2.49
2.1
6.15
9.85
13.26
16.36
18.95
20.77
21.67
21.64
20.87
19.67
18.37
17.19
16.29
15.71
15.36
15.1
14.72
14.02
12.88
11.27
9.23
6.88
4.38
1.83
-0.7
-3.24
-5.95
-9.06
-12.78
-17.12
-21.79
-26.24
-29.76
-31.65
-31.45
-29.08
-24.85
-19.34
-13.28
-7.38
-2.1
2.33
5.92
8.8
11.05
12.77
13.99
14.76
15.19
15.39
15.48
15.56
15.72
16.05
16.6
17.32
18.03
18.52
18.63
18.34
17.81
17.21
16.6
15.86
14.69
12.84
10.18
6.82
2.97
-1.09
-5.07
-8.79
-12.12
-15.1
-17.87
-20.68
-23.72
-27.03
-30.3
-33.04
-34.63
-34.61
-32.76
-29.21
-24.31
-18.54
-12.36
-6.2
-0.35
4.93
9.51
13.22
16
17.82
18.82
19.19
19.25
19.23
19.26
19.31
19.27
19.06
18.67
18.18
17.61
16.97
16.19
15.22
14.06
12.77
11.43
10.07
8.61
6.95
4.95
2.56
-0.22
-3.24
-6.31
-9.22
-11.8
-14.01
-15.97
-17.91
-20.09
-22.72
-25.84
-29.26
-32.59
-35.23
-36.54
-35.89
-32.94
-27.68
-20.57
-12.36
-3.99
3.74
10.27
15.31
18.83
20.91
21.71
21.49
20.56
19.33
18.17
17.36
16.96
16.79
16.59
16.08
15.2
14.08
13.06
12.4
12.21
12.28
12.2
11.52
9.98
7.64
4.79
1.85
-0.86
-3.21
-5.22
-7.1
-9.09
-11.54
-14.72
-18.79
-23.6
-28.64
-33.09
-36.13
-37.18
-36.11
-33.23
-29.14
-24.47
-19.69
-15.08
-10.76
-6.78
-3.2
-0.07
2.51
4.48
5.79
6.45
6.55
6.25
5.76
5.25
4.85
4.59
4.52
4.56
4.62
4.54
4.14
3.32
2.04
0.42
-1.3
-2.88
-4.11
-4.98
-5.63
-6.39
-7.64
-9.69
-12.63
-16.2
-19.8
-22.6
-23.85
-23.12
-20.44
-16.28
-11.33
-6.22
-1.43
2.8
6.39
9.31
11.58
13.26
14.53
15.58
16.54
17.4
18.01
18.19
17.83
16.99
15.81
14.56
13.41
12.53
11.97
11.7
11.57
11.35
10.78
9.62
7.74
5.2
2.18
-1.06
-4.3
-7.34
-10.14
-12.75
-15.3
-17.91
-20.6
-23.16
-25.18
-26.23
-25.92
-24.15
-21.02
-16.83
-11.93
-6.65
-1.32
3.78
8.38
12.28
15.39
17.76
19.5
20.78
21.67
22.22
22.44
22.31
21.81
20.94
19.66
18.03
16.07
13.89
11.57
9.2
6.79
4.38
1.95
-0.48
-2.85
-5.09
-7.16
-9.06
-10.93
-13.03
-15.64
-18.99
-23.11
-27.67
-32.09
-35.56
-37.37
-37.04
-34.52
-30.12
-24.42
-18.07
-11.57
-5.24
0.75
6.31
11.39
15.89
19.73
22.78
24.86
25.78
25.37
23.59
20.68
17.11
13.53
10.52
8.47
7.45
7.26
7.54
7.88
7.94
7.51
6.55
5.2
3.76
2.42
1.18
-0.28
-2.5
-5.99
-10.95
-17.17
-24.04
-30.78
-36.62
-40.89
-43.08
-42.79
-39.84
-34.39
-26.97
-18.5
-10
-2.38
3.83
8.47
11.68
13.8
15.22
16.27
17.22
18.14
18.92
19.37
19.34
18.78
17.89
16.85
15.84
14.89
13.99
13.1
12.3
11.63
11.07
10.5
9.66
8.39
6.71
4.7
2.49
0.13
-2.47
-5.44
-8.85
-12.63
-16.61
-20.49
-23.9
-26.42
-27.55
-26.99
-24.7
-20.94
-16.25
-11.22
-6.27
-1.65
2.53
6.22
9.34
11.77
13.47
14.45
14.83
14.73
14.26
13.45
12.39
11.16
9.92
8.81
7.96
7.34
6.9
6.41
5.67
4.49
2.87
0.93
-1.01
-2.63
-3.77
-4.47
-5.03
-5.86
-7.35
-9.75
-13.02
-16.77
-20.32
-22.85
-23.57
-22.07
-18.41
-13.12
-7
-0.87
4.73
9.49
13.29
16.09
17.9
18.77
18.93
18.68
18.36
18.16
18.08
17.92
17.53
16.79
15.77
14.65
13.64
12.9
12.49
12.33
12.24
12.04
11.56
10.68
9.37
7.54
5.04
1.71
-2.52
-7.49
-12.66
-17.29
-20.55
-21.88
-21.15
-18.71
-15.19
-11.33
-7.67
-4.44
-1.63
0.94
3.39
5.66
7.48
8.48
8.39
7.24
5.35
3.22
1.28
-0.32
-1.71
-3.22
-5.06
-7.18
-9.25
-10.79
-11.44
-11.11
-10.07
-8.82
-7.92
-7.85
-8.86
-10.93
-13.77
-16.88
-19.73
-21.81
-22.78
-22.46
-20.83
-17.97
-14.06
-9.45
-4.54
0.15
4.19
7.3
9.42
10.71
11.35
11.55
11.39
10.88
10
8.74
7.18
5.43
3.68
2.07
0.71
-0.44
-1.41
-2.3
-3.11
-3.88
-4.71
-5.8
-7.52
-10.19
-13.9
-18.33
-22.75
-26.27
-28.12
-27.96
-25.85
-22.21
-17.54
-12.25
-6.68
-1.09
4.19
8.83
12.49
15.02
16.45
16.99
16.92
16.45
15.7
14.69
13.41
11.87
10.16
8.38
6.7
5.24
4.07
3.19
2.49
1.8
0.92
-0.37
-2.24
-4.82
-8.11
-11.93
-15.82
-19.09
-20.97
-20.89
-18.73
-14.86
-10.01
-4.9
-0.07
4.33
8.34
12.06
15.44
18.27
20.28
21.3
21.3
20.43
18.94
17.07
15.05
13.03
11.11
9.35
7.72
6.22
4.82
3.52
2.31
1.13
-0.12
-1.59
-3.45
-5.81
-8.71
-12.02
-15.45
-18.57
-20.88
-21.98
-21.66
-19.96
-17.09
-13.4
-9.22
-4.81
-0.37
3.91
7.85
11.21
13.81
15.5
16.21
16.02
15.09
13.71
12.24
10.96
10.04
9.41
8.9
8.3
7.49
6.51
5.46
4.44
3.42
2.27
0.85
-0.92
-3.05
-5.45
-8.09
-10.96
-14.01
-17.08
-19.77
-21.57
-21.96
-20.65
-17.68
-13.37
-8.25
-2.82
2.47
7.37
11.69
15.35
18.25
20.32
21.53
21.9
21.57
20.74
19.65
18.53
17.51
16.64
15.89
15.27
14.79
14.52
14.43
14.34
13.93
12.87
10.99
8.4
5.4
2.44
-0.16
-2.3
-4.12
-5.97
-8.17
-10.88
-13.99
-17.12
-19.69
-21.12
-21.03
-19.28
-16.06
-11.78
-6.91
-1.95
2.69
6.77
10.13
12.74
14.68
16.05
16.94
17.39
17.46
17.23
16.78
16.22
15.55
14.71
13.66
12.39
11.04
9.8
8.82
8.06
7.35
6.5
5.39
4.03
2.52
0.97
-0.56
-2.13
-3.85
-5.83
-8.15
-10.78
-13.55
-16.11
-17.93
-18.54
-17.65
-15.33
-11.94
-8.02
-4
-0.15
3.45
6.79
9.73
12.06
13.53
14.04
13.65
12.61
11.31
10.1
9.27
8.88
8.85
8.92
8.78
8.19
7.1
5.61
3.95
2.32
0.79
-0.65
-2.06
-3.51
-5.03
-6.69
-8.55
-10.64
-12.92
-15.2
-17.17
-18.44
-18.71
-17.79
-15.72
-12.7
-9.13
-5.38
-1.84
1.18
3.5
5.01
5.68
5.52
4.59
3.06
1.23
-0.52
-1.85
-2.57
-2.73
-2.54
-2.3
-2.22
-2.39
-2.79
-3.38
-4.15
-5.1
-6.22
-7.5
-8.93
-10.54
-12.39
-14.52
-16.9
-19.32
-21.41
-22.69
-22.76
-21.35
-18.51
-14.59
-10.19
-5.91
-2.21
0.73
3
4.85
6.42
7.7
8.54
8.75
8.29
7.32
6.17
5.15
4.43
4.02
3.76
3.46
2.95
2.23
1.34
0.39
-0.55
-1.45
-2.37
-3.43
-4.69
-6.17
-7.86
-9.69
-11.58
-13.39
-14.93
-15.88
-15.92
-14.87
-12.74
-9.8
-6.45
-3.12
-0.05
2.7
5.17
7.41
9.38
10.95
11.97
12.43
12.37
11.97
11.37
10.69
9.99
9.27
8.57
7.87
7.16
6.4
5.59
4.73
3.9
3.16
2.53
1.98
1.41
0.7
-0.27
-1.58
-3.27
-5.35
-7.78
-10.46
-13.21
-15.79
-17.91
-19.32
-19.77
-19.17
-17.5
-14.91
-11.68
-8.16
-4.68
-1.5
1.3
3.76
5.92
7.81
9.35
10.44
11.03
11.15
11.01
10.87
10.92
11.2
11.57
11.79
11.65
11.09
10.22
9.25
8.38
7.68
7.05
6.35
5.49
4.46
3.33
2.19
1.06
-0.15
-1.54
-3.16
-4.93
-6.71
-8.37
-9.9
-11.42
-13.15
-15.18
-17.46
-19.71
-21.57
-22.64
-22.66
-21.54
-19.37
-16.41
-12.95
-9.28
-5.6
-2
1.47
4.75
7.71
10.15
11.92
13.02
13.62
13.99
14.36
14.75
15.05
15.07
14.69
13.97
13.12
12.31
11.61
10.93
10.11
9.05
7.79
6.45
5.22
4.15
3.21
2.25
1.17
-0.06
-1.41
-2.78
-4.07
-5.33
-6.69
-8.38
-10.58
-13.35
-16.57
-19.91
-22.99
-25.42
-26.9
-27.22
-26.35
-24.35
-21.39
-17.71
-13.58
-9.24
-4.9
-0.75
3.04
6.31
8.99
11.08
12.69
13.94
14.88
15.48
15.65
15.34
14.64
13.78
13.04
12.63
12.6
12.81
13.05
13.12
12.93
12.48
11.85
11.09
10.19
9.1
7.75
6.09
4.21
2.25
0.4
-1.22
-2.58
-3.83
-5.21
-6.94
-9.17
-11.84
-14.75
-17.54
-19.85
-21.36
-21.88
-21.31
-19.69
-17.15
-13.85
-10.04
-6
-2.06
1.49
4.4
6.56
7.99
8.79
9.13
9.21
9.2
9.2
9.24
9.29
9.29
9.17
8.91
8.55
8.16
7.84
7.56
7.22
6.61
5.55
4.01
2.16
0.31
-1.26
-2.4
-3.22
-4.03
-5.14
-6.84
-9.2
-12.12
-15.38
-18.59
-21.3
-22.98
-23.18
-21.69
-18.69
-14.72
-10.48
-6.62
-3.47
-0.99
1.04
2.9
4.72
6.45
7.86
8.74
8.91
8.41
7.45
6.34
5.43
4.97
5.01
5.44
6.01
6.47
6.68
6.52
5.95
4.94
3.48
1.68
-0.28
-2.18
-3.85
-5.28
-6.6
-8.08
-9.98
-12.4
-15.3
-18.35
-21.04
-22.76
-23.01
-21.53
-18.48
-14.42
-10.09
-6.16
-3.01
-0.63
1.25
2.93
4.6
6.28
7.89
9.39
10.75
11.95
12.88
13.34
13.14
12.22
10.76
9.1
7.61
6.5
5.82
5.42
5.16
4.89
4.54
4.12
3.64
3.09
2.47
1.75
0.87
-0.25
-1.71
-3.62
-6.07
-9.05
-12.43
-15.96
-19.21
-21.68
-22.91
-22.66
-20.99
-18.2
-14.71
-10.85
-6.81
-2.68
1.45
5.33
8.65
11.18
12.84
13.82
14.42
14.94
15.46
15.93
16.22
16.21
15.86
15.2
14.31
13.25
12.11
11.01
10.05
9.31
8.78
8.34
7.82
6.99
5.7
3.87
1.56
-1.03
-3.6
-5.93
-7.88
-9.56
-11.19
-13.06
-15.4
-18.19
-21.18
-23.89
-25.83
-26.58
-25.91
-23.88
-20.68
-16.65
-12.08
-7.23
-2.32
2.41
6.67
10.24
12.99
15.01
16.51
17.71
18.67
19.27
19.37
18.94
18.14
17.31
16.75
16.6
16.73
16.89
16.8
16.33
15.47
14.29
12.88
11.34
9.74
8.21
6.84
5.63
4.47
3.21
1.68
-0.15
-2.2
-4.34
-6.45
-8.49
-10.52
-12.67
-15.12
-17.97
-21.24
-24.7
-27.92
-30.34
-31.42
-30.83
-28.59
-25.03
-20.65
-15.94
-11.24
-6.77
-2.66
1.02
4.2
6.87
9.08
10.87
12.28
13.32
13.97
14.26
14.33
14.34
14.42
14.51
14.41
13.76
12.28
9.97
7.24
4.89
3.88
4.97
8.34
13.4
18.84
23.11
24.91
23.69
19.76
14.1
7.8
1.62
-4.24
-10.13
-16.64
-24.27
-33.2
-43.16
-53.5
-63.18
-71.03
-76
-77.47
-75.58
-71.11
-65.29
-59.15
-53.26
-47.68
-42.26
-37.24
-33.5
-32.36
-35.17
-42.69
-54.82
-70.57
-88.04
-104.38
-115.68
-117.51
-106.14
-80.52
-43.7
-2.91
32.36
53.68
56.76
42.61
16.54
-14.65
-45.11
-71.19
-90.9
-102.84
-105.42
-97.03
-76.97
-46.06
-6.9
36.85
81.15
122.22
156.9
182.94
199.22
205.95
204.61
197.6
187.73
177.67
169.6
164.96
164.09
166
168.39
168.2
162.65
150.35
132.01
110.17
88.35
69.9
57.01
50.45
49.73
53.56
60.29
68.18
75.28
79.39
78.06
69.11
51.28
25.02
-7.41
-42.51
-76.54
-106.6
-131.06
-149.45
-161.98
-169.1
-171.39
-169.72
-165.29
-159.31
-152.62
-145.28
-136.71
-126.31
-114.14
-101.2
-89.3
-80.26
-75.08
-73.43
-73.63
-73.22
-69.88
-62.15
-49.88
-34.29
-17.58
-2.24
9.53
16.45
18.41
16.38
12.15
7.87
5.57
6.5
10.85
17.52
24.49
29.29
29.73
24.48
13.4
-2.22
-19.89
-36.46
-48.92
-55.21
-54.62
-47.86
-36.64
-23.08
-9.11
4.05
15.96
27.07
38.24
50.28
63.28
76.39
87.85
95.69
98.62
96.81
91.87
86.1
81.37
78.17
75.63
72.13
66.34
58.01
47.97
37.72
28.52
20.96
14.88
9.8
5.44
2.26
1.41
4.39
12.33
25.13
41.15
57.37
70.2
76.76
76.05
69.53
60.61
53.35
50.86
54.09
61.61
70.34
76.79
78.08
72.67
60.38
42.24
20.2
-2.99
-23.92
-39
-45.28
-41.54
-28.93
-10.8
8.64
25.82
38.77
47.1
50.66
48.2
36.72
12.55
-26.41
-78.3
-136.62
-191.87
-234.78
-259.8
-266.41
-258.08
-239.42
-213.51
-181.03
-141.25
-94.16
-41.88
11.25
60.17
100.78
130.94
150.02
157.84
153.73
136.37
104.52
57.74
-2.76
-73.66
-149.36
-222.23
-283.66
-326.06
-345.01
-340.69
-317.73
-283.19
-243.67
-202.94
-161.3
-117.19
-69.98
-22.15
20.5
50.71
62.97
55.78
32.3
-0.86
-35.86
-65.7
-85.12
-90.69
-80.64
-55.09
-16.57
29.43
75.06
112.11
134.7
141.78
137.87
131.64
133.05
149.8
184.78
235.2
293.59
350.24
396.09
425.02
434.79
426.8
404.57
372.1
332.58
287.85
238.84
186.16
130.82
74.67
20.32
-29.04
-70.09
-99.65
-115.09
-114.83
-98.85
-69.32
-30.74
10.62
48.05
76.23
92.89
99.29
99.19
96.81
94.75
93.02
89.73
82.74
71.31
56.35
39.6
22.05
3.09
-19.07
-45.73
-76.14
-106.95
-133.27
-150.55
-156.36
-150.9
-136.25
-115.04
-89.39
-60.68
-30.11
0.53
28.72
51.5
66.31
71.49
66.55
52.01
28.99
-0.96
-35.97
-73.86
-112.1
-147.9
-178.17
-199.8
-210.21
-207.93
-193.05
-167.09
-132.21
-90.15
-41.53
13.75
75.16
140.13
203.42
257.77
296.09
313.6
309
284.38
243.68
190.64
127.7
56.32
-21.21
-100.14
-172.78
-230.15
-264.95
-274.61
-262.59
-237.38
-209.15
-185.96
-170.92
-161.88
-153.34
-139.78
-118.56
-91.4
-63.68
-42.32
-33.19
-39.23
-60
-92.12
-130.55
-169.69
-203.93
-227.86
-236.92
-228.25
-201.6
-159.69
-107.37
-50.24
7
61.31
110.96
154.8
191.67
220.61
241.49
255.43
264.54
270.89
275.72
279.07
280.34
279.19
276.09
272.16
268.36
264.69
259.78
251.35
237
215.08
185.18
148.03
105.23
58.68
10.05
-39.55
-89.48
-138.88
-185.97
-227.75
-260.6
-281.78
-290.89
-290.27
-283.94
-275.73
-267.47
-258.5
-246.79
-230.99
-211.75
-191.66
-173.49
-158
-143.09
-124.79
-99.98
-68.88
-35.83
-7.68
9.17
11.41
-0.07
-21.21
-47.03
-73.57
-98.81
-122.32
-144.56
-166.31
-188.3
-210.9
-233.6
-254.3
-269.49
-275.18
-268.68
-249.95
-221.74
-188.38
-153.81
-120.16
-87.45
-54.49
-19.91
17.06
56.46
97.47
138.15
175.22
204.33
221.31
223.82
212.63
191.81
167.32
145.05
129.25
122.07
124.09
135.01
153.62
177.29
201.67
221.39
231.89
231.53
222.72
211.11
203.37
204.7
216.75
237.27
260.99
281.14
291.19
286.54
266.08
233.15
194.99
160.45
136.51
125.24
122.93
121.77
113.47
92.75
59.06
15.87
-31.46
-78.06
-120.8
-158.22
-189.56
-213.68
-228.77
-232.76
-224.53
-204.98
-177.53
-147.79
-122.05
-105.12
-98.83
-101.61
-109.62
-118.72
-126.34
-132.02
-136.61
-140.59
-142.94
-141.04
-131.98
-114.18
-88.55
-58.5
-28.56
-2.7
17.24
31.71
42.54
51.37
58.56
63.11
63.55
59.27
51.17
41.46
32.58
26
21.61
17.92
12.94
5.17
-5.84
-19.51
-34.68
-50.09
-64.44
-76.3
-84.18
-86.79
-83.73
-75.88
-65.39
-54.85
-46.28
-40.41
-36.55
-33.26
-29.32
-24.4
-19.07
-14.36
-10.99
-8.92
-7.36
-4.94
-0.13
8.24
20.62
36.44
54.04
70.92
84.39
92.47
94.47
91.36
85.32
79.03
74.81
74.14
77.48
84.37
93.64
103.64
112.89
120.59
127.2
134.22
143.44
155.69
169.98
183.45
192.33
193.53
185.8
170.11
148.88
124.71
99.21
72.69
44.54
14.11
-18.47
-51.87
-83.62
-110.76
-130.69
-142.18
-145.92
-144.31
-140.66
-137.92
-137.87
-140.87
-146.21
-152.6
-158.48
-162.38
-163.31
-161.28
-157.67
-154.8
-154.72
-157.72
-161.54
-162.06
-155.17
-138.75
-113.29
-81.16
-45.04
-7.25
29.71
62
84.18
90.94
80.28
55.93
27.12
5.17
-1.9
6.55
23.21
36.38
35.64
16.7
-17.15
-57.15
-93.18
-117.78
-127.75
-123.47
-106.62
-78.76
-41.41
2.29
46.09
81.51
101
102.28
90.81
78.43
78.23
98.27
137.51
186.38
231.59
262.3
274.27
270.05
255.61
236.18
213.71
187.05
154.02
113.53
66.54
15.96
-34.3
-80.29
-118.61
-146.62
-162.71
-166.69
-159.94
-145.38
-126.88
-108.28
-92.31
-79.94
-70.43
-62.13
-53.65
-44.55
-35.38
-26.99
-19.7
-12.96
-5.76
2.6
11.53
19.35
24.03
24.23
19.89
11.97
1.77
-9.89
-22.89
-37.54
-53.76
-70.59
-86.1
-97.92
-104.06
-103.78
-98.01
-89.14
-80.07
-73.27
-69.88
-69.64
-71.18
-72.82
-73.26
-71.96
-69.26
-66.26
-64.43
-65.09
-68.85
-75.06
-81.79
-86.39
-86.33
-80.17
-68.1
-51.75
-33.64
-16.4
-2.14
7.82
12.98
13.67
11.11
7.39
5.24
7.46
15.81
30.1
48.05
66.05
80.87
91.21
98.28
104.67
112.38
120.89
126.81
125.26
112.37
87.62
54.33
18.52
-13.44
-37.01
-50.55
-55.06
-53.27
-48.57
-44
-41.66
-42.43
-45.82
-50.16
-53.09
-52.3
-46.18
-34.47
-18.39
-0.38
16.57
29.73
37.17
37.83
31.49
18.74
1.22
-18.06
-34.79
-44.32
-43.22
-30.9
-10.01
14.44
37.26
54.98
66.78
73.82
77.61
78.81
76.74
69.99
57.18
37.66
11.96
-17.84
-47.81
-72.14
-83.9
-76.97
-48.45
-0.64
58.74
118.65
168.33
201.02
215.86
217.42
213.02
209.49
210.68
217.04
226.54
236.46
244.63
249.86
251.43
248.38
239.44
223.57
201.31
175.4
150.63
132.36
123.87
124.01
126.93
124.39
109.89
82.44
47.47
14.09
-9.88
-22.22
-27.55
-34.76
-52.36
-84.59
-130.24
-184.01
-239.21
-289.51
-329.51
-354.43
-360.47
-345.98
-312.79
-266.46
-214.65
-164.41
-119.69
-80.78
-45.04
-9.22
28.37
66.83
102.66
130.88
146.29
144.95
125.31
88.91
40.43
-13.28
-65.12
-109.58
-144.16
-169.21
-186.6
-197.99
-203.74
-203.24
-196.08
-183.03
-165.81
-145.72
-122.46
-94.65
-61.87
-27.17
2.44
18.7
16.82
-0.9
-24.94
-42.78
-44.9
-29.02
-0.11
33.5
65.13
92.74
118.17
144.02
170.77
196.06
216.25
228.87
234.04
233.98
231.33
227.49
222
213.25
199.81
181.66
160.54
139.47
121.65
109.1
101.73
97
90.55
77.75
55.51
23.61
-15.07
-55.68
-93.2
-124.09
-147.01
-162.25
-170.42
-171.55
-165.21
-151.46
-132.11
-111.02
-93.2
-83.28
-83.9
-95.13
-114.54
-138.01
-160.57
-177.52
-185.65
-184.28
-175.59
-163.68
-152.6
-144.55
-139.04
-133.85
-127.02
-118.52
-110.11
-103.85
-100.03
-96.52
-90.05
-78.36
-62.05
-44.34
-29.2
-18.82
-12.36
-6.68
1.47
13.3
27.31
40.56
50.8
58.31
66.28
79.42
101.63
133.77
172.86
212.74
246.08
266.88
272.35
263.78
245.8
224.54
205.34
190.9
180.62
171.43
159.58
142.59
120.52
96.18
74.1
58.89
53.25
56.43
64.01
69
64.33
45.7
13.35
-28.07
-71.63
-111.24
-143.97
-170.16
-191.51
-208.48
-219.03
-219.55
-207.33
-182.83
-150.21
-115.63
-84.53
-59.54
-40.26
-24.71
-11.5
-1.15
4.05
1.35
-10.82
-31.54
-57.15
-82.05
-100.17
-106.79
-100.04
-81.6
-56.24
-30.07
-8.29
6.56
15.11
20.17
24.74
30.33
36.28
40.55
41.15
37.46
30.72
23.39
18.09
16.53
19
24.42
30.94
36.46
39.31
38.61
34.53
28.39
22.27
18.48
18.69
23.41
31.82
42.17
52.45
61.19
67.85
72.74
76.69
80.38
84
86.96
87.98
85.37
77.52
63.36
42.76
16.74
-12.72
-42.99
-71.41
-95.73
-114.56
-127.51
-135.08
-138.35
-138.51
-136.53
-132.96
-127.95
-121.49
-113.56
-104.31
-93.98
-82.91
-71.6
-60.71
-51.21
-44.01
-39.66
-37.86
-37.4
-36.44
-33.23
-26.81
-17.29
-5.71
6.44
17.81
27.42
34.71
39.49
41.77
41.76
39.9
36.72
32.79
28.71
25.12
22.68
21.95
23.07
25.49
27.97
28.91
27.07
22.23
15.49
8.98
5.02
5.18
9.62
17.11
25.78
33.87
40.38
45.1
48.26
50.07
50.5
49.41
46.85
43.3
39.46
36.04
33.43
31.58
30.22
28.97
27.55
25.79
23.67
21.24
18.6
15.79
12.67
8.77
3.42
-3.98
-13.53
-24.6
-35.93
-46.16
-54.37
-60.28
-64.06
-65.81
-65.23
-61.64
-54.48
-43.9
-30.93
-17.33
-4.77
5.71
14.1
21
27.03
32.28
36.24
38.14
37.61
35
31.38
28.08
26.22
26.26
28.04
30.93
34.18
36.91
38.11
36.56
31.07
20.92
6.47
-10.68
-27.9
-42.59
-52.95
-58.77
-61.25
-62.3
-63.45
-65.13
-66.62
-66.56
-63.7
-57.59
-48.8
-38.85
-29.79
-23.51
-21.21
-22.98
-27.89
-34.37
-40.5
-44.28
-43.52
-35.91
-19.38
7.03
42.44
83.6
125.41
162.1
188.39
200.5
196.47
175.8
139.61
90.95
34.93
-21.87
-72.91
-113.65
-142.5
-160.16
-167.56
-164.05
-147.09
-114.04
-65.05
-4.84
57.46
111.25
147.97
163.89
160.59
143.26
118
89.93
62.45
37.55
16.59
0.28
-11.55
-20.31
-28.31
-37.67
-48.94
-60.32
-68.18
-68.66
-59.58
-41.52
-17.37
9
34.15
55.4
70.26
75.89
69.65
50.8
22.16
-9.56
-35.83
-49.73
-48.99
-36.81
-20.06
-5.97
0.42
-2.82
-15.1
-34.64
-59.03
-85.3
-109.87
-129.07
-140.26
-142.94
-139.12
-132.61
-127.67
-127.52
-133.53
-145.14
-160.24
-175.93
-188.96
-196.23
-195.01
-183.22
-159.91
-125.62
-82.86
-36.04
8.92
45.97
70.4
80.28
76.93
64.43
48.19
33.46
24.28
22.96
30.3
45.85
68.11
94.54
121.59
144.97
160.75
166.64
163.25
154.53
146.62
145.62
154.82
173
194.59
211.69
217.13
206.95
181.57
145.17
104.2
65.64
35.44
17.51
13.11
20.74
36.76
56.64
76.2
92.3
102.85
106.1
100.21
83.69
56.28
19.99
-20.71
-60.04
-92.73
-115.46
-127.44
-129.48
-122.78
-108.01
-85.6
-56.76
-24.51
6.34
30.66
45.3
51.03
52.57
56.4
67.29
85.39
105.8
121.23
125.95
118.6
102.3
82.07
61.52
41.46
20.74
-1.42
-23.81
-43.63
-58.8
-70.18
-82.24
-101.2
-131.65
-173.69
-222.05
-267.8
-301.41
-316.09
-309.38
-283.21
-242.24
-191.6
-134.93
-73.52
-7.04
64.64
139.62
213.13
278.4
328.82
360.43
373.36
371.69
361.59
348.74
336.19
323.87
309.72
291.63
269.05
243.24
216.11
188.52
159.33
125.88
85.82
39.11
-11
-58.68
-97.9
-124.77
-138.79
-142.33
-138.82
-131
-120.24
-106.83
-91.1
-74.13
-57.82
-44.33
-35.25
-31.17
-31.7
-35.87
-42.67
-51.38
-61.72
-73.57
-86.62
-100.18
-113.31
-125.24
-135.92
-146.07
-156.74
-168.17
-178.95
-185.96
-185.54
-175.54
-156.63
-132.25
-106.99
-84.44
-66.04
-51.32
-39.47
-30.73
-26.8
-29.8
-40.49
-57.1
-75.47
-90.5
-98.16
-96.94
-88.23
-75.5
-62.87
-53.86
-50.43
-52.9
-59.91
-69.03
-77.41
-82.63
-83.42
-80.09
-74.43
-69.03
-66.11
-66.53
-69.24
-71.86
-71.82
-67.68
-60.16
-52.07
-47.28
-48.83
-57.29
-69.82
-80.63
-82.73
-69.92
-38.84
9.84
71.44
138.11
200.73
251.09
283.76
297.12
293.07
275.62
249.1
216.83
180.74
142.15
102.48
64.11
30.35
4.99
-8.67
-9.11
2.09
19.41
34.34
38.22
26.24
0.59
-29.19
-49.66
-49.36
-23.71
22.98
80.03
135.05
178.6
206.32
218.05
215.78
201.69
177.5
145
106.53
64.74
21.98
-20.44
-62.28
-103.72
-144.71
-184.39
-220.9
-251.63
-273.4
-283.01
-277.67
-255.9
-218.33
-168.46
-112.69
-59.25
-16
12.22
25.29
27.83
26.99
29.39
38.44
53.58
71.26
87.04
97.7
102.19
101.22
96.15
88.04
77.3
63.78
47.29
27.82
5.79
-17.78
-41.18
-62.15
-78.26
-87.48
-88.83
-82.6
-70.19
-53.67
-35.53
-18.48
-5.35
1.29
-0.21
-9.79
-25.26
-42.72
-57.85
-67.58
-71.29
-71.02
-70.52
-73.44
-81.81
-95.23
-111.25
-126.34
-137.07
-140.99
-136.97
-125.26
-107.3
-85.47
-62.63
-41.75
-25.43
-15.44
-12.63
-16.82
-26.93
-41.26
-57.55
-73.3
-86.12
-94.07
-96.12
-92.4
-83.89
-71.84
-57.17
-39.95
-19.48
5.24
34.54
67.41
101.3
132.55
157.32
172.7
177.62
173.05
161.47
145.94
129.15
113.01
98.68
87.12
79.26
75.79
76.48
79.82
83.21
83.95
80.36
72.4
61.43
49.2
37.06
25.61
15
5.61
-1.78
-6.4
-7.99
-7.15
-5.11
-2.98
-1.22
0.51
2.92
6.42
10.74
14.97
17.97
18.82
17.1
12.92
6.8
-0.52
-8.16
-15.26
-20.99
-24.85
-26.75
-26.95
-25.97
-24.27
-22.06
-19.31
-15.98
-12.2
-8.44
-5.38
-3.62
-3.38
-4.37
-5.98
-7.58
-8.89
-10.01
-11.34
-13.22
-15.56
-17.89
-19.49
-19.75
-18.55
-16.25
-13.56
-10.97
-8.61
-5.97
-2.34
2.69
8.79
14.96
20.15
24.11
27.72
32.47
39.42
48.37
57.83
65.94
71.59
74.94
76.83
77.61
76.4
71.44
61.35
46.53
29.39
13.5
1.93
-4.09
-5.35
-3.9
-2.02
-1.43
-3.22
-7.78
-15.14
-24.76
-35.59
-46.05
-54.22
-58.15
-56.32
-48.29
-35.17
-19.74
-5.65
4.07
8.48
9.35
10.23
14.53
23.72
36.91
51.9
66.73
80.58
93.35
104.38
111.79
113.08
106.71
93.53
76.58
59.38
43.78
29.22
13.83
-3.2
-19.9
-31.78
-34.2
-25.23
-7.52
12.33
26.26
27.94
15.05
-10.17
-42.02
-73.38
-97.75
-110.83
-111.39
-101.32
-84.91
-67.37
-53.12
-44.44
-40.97
-40.32
-39.46
-36.1
-29.48
-20.32
-9.93
0.59
10.82
20.77
30.28
38.46
43.86
45.03
41.35
33.58
23.55
13.28
3.7
-5.91
-17.45
-32.58
-51.16
-70.64
-86.87
-95.91
-95.9
-87.69
-74.13
-58.34
-42.24
-26.2
-9.98
6.11
20.32
29.96
32.74
28.24
18.41
6.95
-2.31
-7.04
-7.31
-5.28
-3.91
-5.39
-10.14
-16.84
-23.45
-28.46
-31.8
-34.81
-39.43
-47.18
-58.53
-72.91
-89.23
-106.3
-122.8
-136.93
-145.96
-146.54
-135.45
-110.74
-72.59
-23.56
31.76
87.42
136.91
174.19
194.88
197.57
184.75
162.67
139.84
124.32
120.93
129.55
145.17
160.02
166.27
158.48
134.94
97.61
51.45
3.22
-39.88
-71.81
-89.14
-92.05
-83.87
-69.71
-54.43
-41.23
-31.61
-26.28
-25.93
-31.03
-40.62
-51.44
-58.41
-56.86
-45.08
-25.6
-3.95
14.33
26.6
34.07
40.46
49.25
61.41
75.1
86.81
93.25
92.64
85.03
71.81
55.05
36.91
19.16
2.88
-11.8
-25.42
-38.61
-51.55
-63.37
-72.33
-76.52
-74.75
-67.07
-54.82
-39.98
-24.49
-9.86
2.86
12.9
19.49
22.06
20.61
16.18
10.81
6.9
6.26
9.25
14.64
20.08
23.21
22.49
17.6
9.38
-0.74
-11.24
-20.83
-28.62
-34.17
-37.48
-39
-39.52
-40.02
-41.24
-43.43
-46.1
-48.19
-48.39
-45.71
-39.89
-31.49
-21.65
-11.64
-2.54
4.91
10.23
13.11
13.54
12.03
9.72
8.2
8.86
12.12
17.11
21.96
24.7
24.27
20.97
16.21
11.64
8.25
5.97
3.9
1.09
-2.82
-7.4
-11.81
-15.39
-18.03
-20.14
-22.21
-24.43
-26.48
-27.84
-27.99
-26.65
-23.74
-19.18
-12.85
-4.9
3.99
12.46
18.76
21.34
19.53
13.83
5.78
-2.64
-9.7
-14.49
-17.06
-18.33
-19.59
-22.06
-26.46
-32.9
-40.92
-49.7
-58.33
-65.98
-71.95
-75.61
-76.42
-74.06
-68.55
-60.33
-50.2
-38.98
-27.27
-15.25
-2.69
10.7
24.93
39.35
52.75
63.72
71.24
75.2
76.63
77.43
79.78
85.51
95.55
109.8
127.39
147.13
167.89
188.77
208.99
227.69
243.86
256.36
264.16
266.43
262.53
251.91
234.1
208.9
176.88
139.72
100.23
61.84
27.74
-0.05
-21.13
-36.54
-48.1
-57.5
-65.67
-72.6
-77.76
-80.74
-81.81
-82.02
-82.86
-85.54
-90.53
-97.39
-105.23
-113.29
-121.27
-129.16
-136.75
-143.15
-146.85
-146.26
-140.48
-129.8
-115.6
-99.67
-83.54
-68.02
-53.3
-39.28
-25.91
-13.27
-1.44
9.6
19.91
29.42
37.7
44.03
47.58
47.76
44.46
38.24
30.09
21.2
12.59
4.8
-2.19
-8.82
-15.64
-22.94
-30.63
-38.35
-45.69
-52.41
-58.44
-63.77
-68.32
-72.13
-75.59
-79.56
-85.22
-93.42
-104.02
-115.7
-126.2
-133.28
-135.47
-132.55
-125.21
-114.49
-101.16
-85.56
-67.9
-48.72
-29.11
-10.52
5.83
19.46
30.83
40.98
50.93
61.06
70.84
79.14
84.84
87.38
87.03
84.63
81.14
77.12
72.7
67.83
62.77
58.3
55.48
55.14
57.27
60.89
64.37
66.27
66.04
64.38
62.84
63.03
65.59
69.69
73.2
73.45
68.28
56.95
40.59
22.02
5.04
-6.72
-11.07
-8.04
-0.1
8.72
14.09
12.96
4.64
-9.19
-25.2
-39.82
-50.49
-56.26
-57.66
-55.94
-52.23
-47.11
-40.69
-33.04
-24.65
-16.52
-9.88
-5.59
-3.8
-3.98
-5.3
-7.21
-9.6
-12.7
-16.54
-20.74
-24.37
-26.51
-26.8
-25.69
-24.41
-24.37
-26.66
-31.61
-38.69
-46.73
-54.24
-59.86
-62.64
-62.3
-59.33
-54.86
-50.3
-46.87
-45.14
-44.88
-45.22
-45.07
-43.59
-40.45
-35.89
-30.56
-25.25
-20.72
-17.39
-15.29
-13.92
-12.39
-9.67
-4.95
2.02
10.93
21.05
31.59
41.97
51.86
61.11
69.51
76.75
82.39
85.99
87.32
86.49
83.99
80.63
77.28
74.59
72.68
71
68.47
63.92
56.52
46.4
34.77
23.86
16.35
14.36
18.46
26.91
35.87
40.43
36.41
21.88
-2.08
-31.78
-62.32
-89.26
-109.93
-123.84
-132.38
-137.89
-142.74
-148.56
-155.81
-163.88
-171.44
-177.1
-179.93
-179.84
-177.39
-173.4
-168.37
-161.99
-153.06
-139.63
-119.48
-90.78
-52.74
-6.23
46.12
100.4
152.51
199.27
239.17
272.31
299.46
320.98
336.1
342.86
338.87
322.41
293.41
253.89
207.91
160.75
117.75
82.88
57.7
40.91
28.98
17.83
4.68
-11.01
-27.8
-43.88
-58.68
-73.54
-91.13
-113.78
-142.04
-174.18
-206.93
-236.7
-260.62
-276.88
-284.45
-282.69
-271.25
-250.29
-220.81
-184.82
-145
-104.24
-65.02
-29.04
2.92
31.06
56.19
79.34
101.16
121.68
140.24
155.95
168.19
177.01
183.11
187.32
189.93
190.25
186.57
176.78
159.29
133.91
102.16
67.12
32.68
2.56
-20.67
-36.14
-44.95
-49.94
-54.95
-63.74
-78.76
-100.17
-125.5
-150.32
-169.72
-179.9
-179.37
-169
-151.29
-129.11
-104.72
-79.47
-54.04
-29.03
-5.21
16.55
35.68
52.23
66.87
80.5
93.72
106.57
118.43
128.41
135.78
140.41
142.79
143.83
144.26
144.21
143
139.36
131.96
120.08
103.93
84.7
64.17
44.14
25.95
10.33
-2.49
-12.45
-19.45
-23.31
-23.95
-21.58
-16.85
-10.71
-4.08
2.46
8.82
15.32
22.33
30
37.97
45.54
51.83
56.16
58.17
57.88
55.47
50.97
44.23
35.05
23.48
10.16
-3.72
-16.65
-27.33
-34.94
-39.23
-40.3
-38.47
-34.36
-29.11
-24.37
-21.85
-22.32
-24.79
-26.46
-23.86
-14.6
1.21
20.75
39.79
54.58
63.24
65.91
63.65
57.21
46.51
31.38
12.67
-7.05
-24.08
-35.14
-39.01
-37.25
-33.48
-31.59
-34.02
-40.94
-50.76
-61.35
-71.43
-80.97
-90.68
-101.06
-111.65
-121.05
-127.83
-131.5
-132.92
-133.55
-133.97
-132.63
-126.06
-110.51
-84.47
-50.34
-14.15
16.72
36.66
44.07
41.37
32.85
21.88
9.11
-7.21
-29.32
-57.65
-89.89
-121.38
-146.99
-162.81
-167.07
-159.97
-142.84
-117.33
-85.13
-48.07
-8.25
31.78
69.19
101.32
126.02
142.18
150.02
151.31
148.94
145.86
143.76
142.15
138.47
129.4
112.8
89.14
61.66
34.88
12.59
-3.48
-13.62
-18.87
-19.67
-15.59
-6.21
7.36
21.98
33.38
38.18
35.67
28.06
19.1
12.14
8.83
8.95
11.37
14.89
18.5
21.23
21.99
20
15.56
10.34
6.74
6.72
10.73
17.65
25.72
33.56
40.47
45.77
48.17
45.69
36.97
22.67
6.17
-7.52
-14.12
-12.41
-5.02
2.92
6.34
2.63
-7.69
-22.03
-37.82
-54.19
-72.05
-92.94
-117.51
-144.86
-172.87
-199.19
-221.88
-239.23
-249.03
-248.31
-234.21
-205.66
-164.97
-117.79
-71.47
-32.13
-2.54
18.49
34.57
49.38
64.68
79.8
92.65
101.25
105.01
104.87
102.49
99.11
94.86
89.04
80.81
69.87
56.86
43.06
30.04
19.36
12.61
11.35
16.77
28.88
45.73
63.33
76.74
81.84
77.15
64.32
47.14
29.53
13.64
-0.94
-16.66
-36.44
-62.04
-93.13
-127.27
-160.79
-189.93
-211.71
-224.3
-226.72
-218.5
-199.4
-169.73
-131.06
-86.82
-42.27
-3.31
25.35
41.87
47.97
47.9
46.45
46.81
49.55
53.13
55.61
56.28
56.44
58.73
65.68
78.48
96.23
116.36
135.43
150.07
157.63
156.72
147.31
130.64
108.96
84.9
60.96
39.05
20.19
4.48
-8.7
-20.39
-31.67
-43.39
-55.96
-69.44
-83.66
-98.36
-113.24
-127.72
-140.73
-150.78
-156.28
-156.06
-149.84
-138.26
-122.43
-103.36
-81.48
-56.64
-28.46
2.97
36.37
68.94
96.55
114.57
119.32
109.53
87.27
57.53
26.73
0.48
-18.21
-29.56
-36.2
-41.58
-48.37
-57.38
-67.39
-75.41
-77.62
-70.45
-51.94
-22.88
12.83
49.04
79.24
98.73
106.05
103.03
93.71
82.51
72.91
66.96
65.39
68.12
74.47
83.11
91.99
98.56
100.3
95.52
83.89
66.56
45.88
24.55
4.7
-12.71
-27.79
-41.04
-52.44
-61.14
-65.96
-66.47
-63.71
-59.96
-57.62
-57.86
-59.87
-61.33
-59.85
-54.31
-45.33
-34.6
-23.53
-12.31
-0.04
14.46
31.57
50.49
69.69
87.93
105.05
122.14
140.96
162.84
187.78
213.98
238.15
256.37
265.05
261.9
246.26
219.19
183.17
141.71
99
59.34
26.47
2.73
-11.43
-17.57
-18.76
-18.59
-20.19
-25.47
-34.89
-47.69
-62.42
-77.47
-91.52
-103.8
-114.15
-122.9
-130.5
-137.28
-143.18
-147.93
-151.19
-152.92
-153.36
-152.89
-151.73
-149.81
-146.73
-142.15
-136.01
-128.81
-121.41
-114.6
-108.51
-102.41
-94.85
-84.23
-69.63
-51.35
-30.87
-10.32
8.44
24.55
38.34
50.89
63.21
75.59
87.36
97.32
104.47
108.61
110.5
111.43
112.47
113.85
114.79
113.93
110.11
103.12
93.88
84.15
75.66
69.29
64.74
60.91
56.72
51.83
46.83
42.59
39.16
35.2
28.27
16.16
-1.6
-23.08
-44.64
-62.57
-74.58
-80.19
-79.82
-73.42
-60.02
-38.42
-8.9
25.37
58.6
84.18
97.34
96.95
85.64
68.17
49.25
32.04
17.84
6.77
-1.31
-6.41
-8.5
-8.15
-6.74
-6.47
-9.7
-18.04
-31.73
-49.33
-68.12
-84.99
-97.58
-105.11
-108.52
-109.9
-111.4
-114.13
-117.79
-120.94
-121.82
-119.28
-113.28
-104.75
-95.02
-85.2
-75.82
-66.95
-58.53
-50.67
-43.78
-38.33
-34.45
-31.69
-29.01
-25.2
-19.52
-12.15
-4.26
2.47
6.69
8.08
7.47
6.5
6.89
9.76
15.31
23.04
32.11
41.6
50.8
59.1
66.05
71.39
75.16
77.59
78.91
79.07
77.58
73.76
67.17
58.05
47.47
37.02
28.17
21.68
17.42
14.42
11.54
7.77
2.65
-3.89
-11.67
-20.41
-29.75
-39.13
-47.75
-54.54
-58.52
-59.15
-56.49
-51.24
-44.49
-37.31
-30.48
-24.37
-19.04
-14.45
-10.52
-7.25
-4.64
-2.63
-1.07
0.21
1.36
2.49
3.58
4.59
5.42
5.96
6.2
6.13
5.88
5.58
5.38
5.28
5.19
4.85
3.97
2.27
-0.45
-4.22
-8.86
-13.85
-18.41
-21.55
-22.32
-20.16
-15.04
-7.56
1.25
10.2
18.25
24.76
29.51
32.67
34.67
36.01
37.1
38.25
39.52
40.78
41.75
42.05
41.26
39
35.08
29.56
22.81
15.4
7.94
0.93
-5.43
-11.12
-16.26
-20.93
-25.17
-28.9
-32.05
-34.59
-36.62
-38.34
-40.03
-41.89
-43.92
-45.78
-46.81
-46.2
-43.3
-37.88
-30.27
-21.25
-11.75
-2.62
5.55
12.38
17.64
21.2
23.09
23.57
23.14
22.42
21.91
21.77
21.8
21.59
20.81
19.42
17.7
16.12
15.04
14.6
14.56
14.46
13.84
12.38
10.09
7.23
4.25
1.49
-0.88
-3.02
-5.23
-7.84
-11.08
-14.9
-19.09
-23.28
-26.98
-29.65
-30.71
-29.74
-26.56
-21.45
-15.03
-8.11
-1.38
4.78
10.33
15.36
19.94
23.9
26.99
28.99
29.92
30.04
29.78
29.54
29.5
29.59
29.53
29.02
27.89
26.17
24.09
21.89
19.74
17.71
15.73
13.75
11.75
9.79
7.92
6.14
4.38
2.57
0.69
-1.24
-3.26
-5.52
-8.19
-11.38
-14.96
-18.53
-21.48
-23.2
-23.02
-20.39
-14.94
-6.77
3.25
13.61
22.52
28.77
32.38
34.77
38.23
44.85
55.48
69.26
83.84
96.08
103
102.44
93.55
76.82
54.1
28.17
2.2
-20.99
-39.42
-52.19
-59.41
-61.88
-60.9
-57.98
-54.59
-51.87
-50.28
-49.54
-48.79
-47.11
-43.94
-39.34
-33.95
-28.63
-24.14
-20.82
-18.56
-16.85
-14.91
-11.84
-6.99
-0.21
8.06
16.79
24.87
31.43
36.2
39.44
41.66
43.24
44.3
44.82
44.87
44.64
44.36
44.07
43.49
42.2
39.98
36.94
33.67
30.85
28.94
27.93
27.5
27.18
26.69
25.96
25.07
24.09
22.95
21.52
19.67
17.34
14.53
11.23
7.5
3.38
-1.09
-5.89
-11.07
-16.79
-23.1
-29.85
-36.45
-41.98
-45.43
-46.13
-44.07
-40.08
-35.61
-32.37
-31.71
-34.19
-39.39
-46.12
-52.82
-58.22
-61.75
-63.64
-64.61
-65.41
-66.47
-67.72
-68.76
-69.16
-68.6
-66.83
-63.55
-58.45
-51.46
-43.36
-35.85
-31.06
-30.24
-32.57
-34.8
-32.63
-22.93
-5.87
14.74
33.12
44.34
46.57
41.42
32.13
21.26
9.14
-5.63
-24.31
-46.32
-68.92
-88.42
-102.09
-108.93
-109.11
-102.42
-87.27
-61.19
-22.69
26.62
81.17
132.38
171.41
192.18
193.28
177.99
152.57
123.58
95.87
71.77
51.78
35.92
24.63
18.82
18.91
23.82
30.56
35.25
35.19
30.68
25.6
25.96
37.26
61.92
98.21
141.11
184.48
223.27
254.48
277.02
290.56
294.76
289.24
274.32
251.77
224.85
197.45
172.55
151.16
132.08
112.88
91.37
66.95
40.95
15.86
-5.97
-23.68
-38.31
-52.26
-68.1
-87.43
-110.2
-134.99
-159.69
-182.42
-202
-218.1
-230.92
-240.8
-247.97
-252.48
-254.2
-252.93
-248.42
-240.41
-228.72
-213.41
-194.73
-173.23
-149.64
-124.69
-99.13
-73.87
-50.13
-29.57
-14.05
-5.04
-2.98
-6.92
-14.72
-23.82
-32.25
-39.11
-44.61
-49.33
-53.57
-56.93
-58.42
-57.04
-52.3
-44.56
-34.92
-25.04
-16.77
-11.85
-11.58
-16.52
-26.17
-38.95
-52.3
-63.17
-68.87
-67.96
-60.81
-49.48
-36.83
-25.1
-14.83
-4.7
7.6
23.87
44.24
66.95
89.14
108.03
121.64
128.88
129.12
122.13
108.39
89.82
69.96
53.17
43.07
40.91
44.92
50.95
54.23
51.12
40.42
23.37
2.91
-17.64
-35.74
-50.29
-61.75
-71.6
-81.6
-93.1
-106.44
-120.86
-134.76
-146.09
-152.85
-153.55
-147.44
-134.59
-115.81
-92.44
-66.12
-38.55
-11.35
14.05
36.68
56.13
72.68
87.05
100.05
112.13
123.23
133.01
141.07
147.14
150.9
151.69
148.36
139.62
124.81
104.55
80.96
56.98
35.32
17.45
3.18
-8.86
-20.35
-32.4
-45.17
-57.95
-69.56
-78.84
-84.97
-87.64
-87.09
-83.95
-79.1
-73.45
-67.81
-62.7
-58.4
-54.88
-51.87
-48.89
-45.39
-40.9
-35.24
-28.5
-21.1
-13.49
-6.11
0.77
6.84
11.66
14.56
14.83
12
6.21
-1.66
-10.19
-17.89
-23.67
-27.14
-28.61
-28.82
-28.57
-28.38
-28.32
-27.99
-26.74
-23.94
-19.31
-13.13
-6.16
0.73
7.08
13.22
20.14
29.05
40.64
54.66
69.95
85.04
98.81
110.82
121.04
129.32
134.88
136.52
133.19
124.94
113.17
100.19
88.05
77.61
68.17
58.14
46.26
32.67
19.15
8.38
2.57
2.2
5.45
8.6
7.42
-1.11
-17.46
-39.18
-61.79
-80.24
-90.59
-90.84
-80.95
-62.29
-37.18
-8.82
18.68
40.71
53.34
54.83
46.58
32.84
18.99
9.38
5.85
7.92
14.18
23.89
37.39
55.17
76.28
97.48
113.96
121.37
118.08
105.98
89.57
73.63
60.92
51.13
41.54
28.95
11.62
-9.65
-31.74
-50.19
-60.55
-59.52
-45.86
-20.72
12.17
47.13
77.7
98.29
105.82
100.86
87.74
73.51
65.58
68.97
83.92
105.17
123.67
130.17
119.31
92
54.77
16.28
-16.99
-43.47
-66.07
-89.02
-114.27
-139.69
-160.33
-171.62
-172.25
-164.89
-154.47
-145.24
-138.83
-134.04
-128.53
-120.99
-112.12
-104.17
-99.33
-98.29
-99.66
-100.61
-98.21
-90.63
-77.64
-60.58
-41.54
-22.8
-6.21
6.99
16.25
21.7
24.04
24.41
23.96
23.45
23
22.07
19.99
16.37
11.37
5.58
-0.45
-6.51
-12.74
-19.15
-25.21
-29.68
-30.96
-27.95
-20.68
-10.7
-0.55
6.95
9.64
6.62
-1.59
-13.22
-25.62
-36.16
-43.11
-46.26
-46.64
-45.93
-45.7
-46.68
-48.6
-50.49
-51.5
-51.59
-51.83
-53.56
-57.91
-65.23
-74.97
-85.8
-95.43
-101.4
-101.6
-95.08
-81.58
-61.94
-37.92
-11.79
14.49
40.69
67.18
93.91
118.76
139.64
154.22
160.42
156.77
143.36
124.13
104.28
88.35
77.05
71.67
72.78
80.33
92.96
108.75
128.71
153.16
180.39
203.76
220.36
230.01
234.8
236.62
237.1
241.41
253.31
273.37
294.86
314.74
332.06
347.92
362.88
353.11
305.53
223.8
151.18
96.91
58.95
24.78
-10.27
-48.7
-91.81
-136.41
-179.69
-220.75
-264.15
-308.86
-350.48
-382.58
-400.53
-401.97
-384.01
-346.88
-294.88
-238.7
-186.02
-141.68
-107.11
-82.07
-64.74
-50.72
-36.56
-21.15
-7.49
3.52
12.99
23.7
37.71
55.06
73.98
90.3
98.69
93.79
74.08
41.57
0.82
-43.2
-85.86
-122.95
-151.1
-168.24
-174.47
-171.59
-163.06
-152.68
-143.08
-134.37
-124.18
-109.23
-87.51
-59.88
-29.9
-2.2
19.49
33.65
40.76
42.29
39.87
35.06
29.86
26.87
28.58
36.13
48.21
61.27
70.9
73.87
69.51
59.64
47.47
35.97
26.67
19.57
13.62
7.7
1.07
-6.22
-13.58
-20.13
-25.29
-29.13
-32.52
-36.8
-43.19
-52.17
-63.22
-75.06
-86.14
-95.21
-101.53
-104.89
-105.36
-103.42
-100.16
-97.35
-97.14
-101.09
-109.17
-119.17
-127.18
-129.11
-122.61
-108.31
-89.58
-70.84
-55.32
-43.55
-33.43
-21.65
-5.74
14.53
37.15
59.11
77.92
92.54
103.31
111.05
116.07
117.7
114.81
106.81
94.44
79.85
65.87
54.66
46.65
40.28
32.79
21.7
6.23
-12.02
-29.73
-43.28
-50.28
-50.29
-44.54
-34.82
-22.43
-7.83
8.84
26.93
44.76
60
70.56
75.73
76.48
74.99
73.61
73.81
75.84
78.91
81.86
83.73
84.16
83.43
82.2
81.21
80.84
80.96
81.06
80.69
79.93
79.61
81.03
85.12
91.82
99.67
106.35
109.51
107.61
100.23
87.87
71.47
52.19
31.66
12.2
-3.22
-11.84
-12.25
-5.2
6.76
20.53
34.08
47.26
61.39
77.91
97.01
117.16
135.6
149.74
158.18
160.86
158.59
152.22
142.36
129.52
114.39
97.89
80.65
62.52
42.34
18.49
-10.14
-43.33
-79.27
-115.17
-148.22
-176.47
-199.19
-216.47
-228.62
-235.76
-237.72
-234.36
-225.88
-212.9
-196.42
-177.61
-157.56
-137.22
-117.38
-98.72
-81.82
-67.13
-55.04
-45.76
-39.29
-35.34
-33.26
-32.2
-31.35
-30.21
-28.88
-27.92
-28.13
-30.07
-33.76
-38.5
-43.09
-46.28
-47.27
-46.24
-44.51
-44.27
-47.9
-57.15
-72.58
-93.4
-117.66
-142.76
-165.85
-184.18
-195.34
-197.63
-190.34
-174.06
-150.7
-123.18
-94.76
-68.13
-44.74
-24.69
-7
9.56
25.74
41.42
55.76
67.79
77.13
84.12
89.6
94.15
97.75
99.83
99.83
97.7
93.99
89.45
84.54
79.21
73.27
67.11
62.18
60.53
63.67
71.2
80.34
86.67
85.89
75.54
56.01
30.11
1.77
-25.5
-49.62
-70.04
-87.13
-101.28
-112.22
-118.92
-120.01
-114.45
-102.09
-83.99
-62.16
-39.06
-16.87
3.09
20.4
35.24
47.84
58.23
66.15
71.41
74.24
75.35
75.72
76.13
76.76
77.1
76.23
73.27
67.85
60.33
51.63
42.91
35.12
28.76
23.81
19.94
16.66
13.45
9.88
5.53
0.14
-6.4
-13.85
-21.72
-29.29
-35.82
-40.63
-43.16
-42.96
-39.69
-33.35
-24.38
-13.75
-2.78
7.24
15.39
21.36
25.37
27.88
29.26
29.67
29.06
27.39
24.74
21.38
17.68
14
10.61
7.7
5.35
3.53
2.12
0.94
-0.18
-1.39
-2.78
-4.33
-5.99
-7.68
-9.26
-10.66
-11.9
-13.19
-14.92
-17.52
-21.21
-25.81
-30.69
-34.79
-37.02
-36.46
-32.7
-25.92
-16.8
-6.38
4.22
14
22.3
28.86
33.76
37.29
39.75
41.28
41.87
41.44
39.91
37.37
33.91
29.66
24.63
18.9
12.76
6.96
2.67
1.06
2.6
6.63
11.41
14.86
15.63
13.75
10.49
7.46
5.5
4.07
1.7
-3.01
-10.35
-19.11
-27.22
-32.84
-35.26
-35.04
-33.45
-31.6
-29.81
-27.53
-23.72
-17.41
-8.26
3.29
16.07
28.46
38.89
46.27
50.3
51.45
50.7
49.12
47.4
45.59
43.19
39.5
34.13
27.39
20.36
14.49
10.85
9.54
9.48
8.85
5.84
-0.63
-10.64
-23.47
-38.01
-52.64
-65.03
-72.04
-70.56
-59.12
-39.51
-16.99
1.39
9.74
6.14
-6.75
-23.37
-38.66
-50.99
-62.96
-79.42
-104.03
-136.19
-170.19
-197.11
-208.3
-199.02
-170.36
-128.88
-84.21
-45.28
-17.27
-0.29
9.71
18.44
30.39
46.76
65.3
81.54
90.96
90.92
81.7
66.01
47.81
30.98
18.42
11.67
11.18
16.51
26.58
40
55.48
72.21
89.79
107.77
124.94
138.74
145.59
142
126.3
100.09
68.37
37.96
14.81
1.73
-2.55
-2.21
-1.6
-2.61
-3.32
1.2
16.25
44.59
84.7
130.88
175.3
210.82
233.06
240.99
236.15
221.16
198.47
169.86
136.72
100.59
63.63
28.4
-2.7
-28.23
-48.11
-63.59
-76.64
-89.36
-103.11
-118.03
-132.78
-144.7
-150.59
-147.95
-136.29
-117.74
-96.57
-77.57
-64.14
-56.99
-54.43
-53.71
-52.77
-51.19
-49.94
-50.3
-52.71
-56.33
-59.5
-60.57
-58.89
-55.06
-50.69
-47.69
-47.37
-49.86
-54.01
-57.9
-59.7
-58.56
-55.03
-50.79
-47.81
-47.49
-50.07
-54.71
-59.86
-63.87
-65.51
-64.22
-60.18
-54.24
-47.49
-40.69
-33.86
-26.1
-15.86
-1.53
17.79
41.82
69.06
97.43
125.3
152.25
179.44
208.98
242.65
280.52
320.29
357.66
387.82
407.1
414.05
409.26
394.39
370.94
339.88
301.83
257.68
208.93
157.45
105.26
54.62
8.3
-30.5
-58.95
-76.01
-83.69
-87.15
-93.3
-108.24
-134.84
-171.71
-214.04
-255.5
-290.54
-315.87
-330.81
-336.74
-335.91
-330.29
-320.8
-307.25
-289.18
-267.15
-243.69
-223.19
-210.29
-207.57
-213.69
-223.04
-227.37
-218.59
-191.54
-145.83
-85.78
-18.87
46.56
103.42
146.99
174.9
186.44
181.74
161.76
128.69
86.49
40.8
-2.13
-37
-60.94
-73.91
-78.1
-76.47
-71.31
-63.52
-52.78
-38.32
-19.79
2.07
25.27
46.71
62.95
71.19
70.21
60.85
45.74
28.34
11.69
-2.46
-13.84
-23.08
-30.77
-36.51
-38.78
-35.5
-25.19
-8.16
13.34
35.85
56.45
73.9
88.95
102.91
115.84
125.66
128.86
122.84
108.05
88.54
69.99
56.73
49.43
45.25
40.26
32.35
22.66
14.68
