0
0
0
0
0
0
0
0
0
0
0
0.01
0.01
0
-0.03
-0.05
-0.05
0
0.13
0.36
0.66
1.01
1.37
1.72
2.06
2.4
2.79
3.24
3.8
4.42
5.06
5.66
6.2
6.68
7.15
7.68
8.31
9.14
10.09
11.04
11.88
12.56
13.14
13.76
14.65
15.96
17.91
20.32
22.9
25.38
27.58
29.57
31.68
34.32
37.81
42.54
48.15
54.1
59.83
64.97
69.58
74.14
79.34
85.71
93.76
103
112.62
121.73
129.77
136.75
143.3
150.75
157.77
166.64
177.95
191.79
206.97
220.57
228.25
225.36
208.53
176.87
132.76
80.05
23.07
-34.94
-92.44
-149.16
-205.23
-260.37
-313.74
-363.87
-409.83
-450.91
-486.5
-515.74
-537.23
-549.22
-549.96
-538.37
-514.21
-478.67
-433.88
-382.45
-327.02
-269.84
-212.63
-156.66
-102.95
-52.37
-5.9
35.58
71.43
101.35
125.5
144.38
158.69
169.15
176.37
180.75
182.57
182.07
179.51
175.23
169.65
163.18
156.15
148.81
141.3
133.69
126.02
118.33
110.69
103.16
95.8
88.68
81.83
75.25
68.95
62.95
57.25
51.86
46.78
42.03
37.59
33.45
29.61
26.07
22.81
19.83
17.11
14.67
12.48
10.54
8.83
7.35
6.07
4.97
4.05
3.27
2.62
2.09
1.65
1.3
1.01
0.79
0.61
0.48
0.37
0.29
0.24
0.2
0.18
0.17
0.17
0.19
0.21
0.23
0.27
0.3
0.34
0.39
0.43
0.48
0.53
0.57
0.62
0.68
0.74
0.8
0.87
0.94
1.02
1.11
1.21
1.33
1.45
1.59
1.75
1.93
2.12
2.34
2.59
2.85
3.15
3.47
3.83
4.22
4.65
5.1
5.6
6.14
6.71
7.33
7.99
8.69
9.44
10.23
11.07
11.95
12.88
13.86
14.9
16.01
17.18
18.4
19.67
20.94
22.18
23.29
24.19
24.75
24.86
24.41
23.28
21.45
18.9
15.69
11.89
7.66
3.2
-1.29
-5.58
-9.5
-12.87
-15.57
-17.56
-18.8
-19.32
-19.22
-18.57
-17.49
-16.1
-14.49
-12.79
-11.03
-9.28
-7.51
-5.74
-3.95
-2.15
-0.33
1.52
3.37
5.21
7.07
9.04
11.06
13.17
15.37
17.68
20.08
22.54
25.04
27.63
30.49
33.52
36.74
40.2
43.84
47.57
51.2
54.62
57.86
61.21
64.58
68.12
71.97
76.09
80.28
84.15
87.42
90.01
92.24
94
95.49
96.77
97.53
96.98
93.87
86.64
73.42
57.12
38.95
19.99
1.02
-17.58
-35.93
-54.52
-74.05
-95.3
-118.83
-145.26
-173.82
-202.16
-226.66
-243.35
-249.35
-243.93
-228.83
-207.52
-184.33
-162.51
-143.59
-127.66
-114.15
-102.53
-92.67
-84.56
-77.99
-72.66
-67.95
-63.27
-58.39
-53.48
-49.06
-45.7
-43.81
-43.54
-44.91
-47.65
-51.17
-54.57
-56.7
-56.19
-51.82
-42.71
-28.71
-10.52
10.43
32.3
53.15
71.3
85.53
95.21
100.28
101.16
98.63
93.69
87.36
80.53
73.87
67.77
62.44
58.02
54.57
52.11
50.6
49.87
49.65
49.69
49.74
49.58
49.04
47.89
45.91
42.92
38.84
33.79
28.08
22.08
16.18
10.61
5.38
0.31
-4.91
-10.49
-16.5
-22.76
-28.88
-34.47
-39.19
-43.05
-46.32
-49.54
-53.3
-58.05
-63.96
-70.65
-77.2
-82.14
-83.75
-80.43
-71.23
-56.15
-36.37
-13.94
8.66
29.15
45.87
58.02
65.61
69.18
69.51
67.41
63.61
58.72
53.3
47.83
42.77
38.46
35.14
32.9
31.7
31.43
31.92
32.95
34.2
35.35
36.02
35.85
34.62
32.2
28.64
24.12
18.97
13.53
8.16
3.01
-1.96
-6.99
-12.38
-18.28
-24.56
-30.86
-36.76
-41.99
-46.55
-50.75
-55.07
-60
-65.84
-72.59
-79.66
-85.94
-89.75
-89.29
-83.11
-70.69
-52.72
-30.98
-7.9
14.11
33.12
48.03
58.45
64.58
66.94
66.25
63.25
58.71
53.36
47.88
42.81
38.49
35.08
32.59
30.93
30.03
29.85
30.35
31.39
32.72
33.95
34.61
34.27
32.69
29.86
25.96
21.32
16.23
10.92
5.49
-0.08
-5.85
-11.87
-18.11
-24.47
-30.69
-36.52
-41.75
-46.3
-50.35
-54.3
-58.75
-64.33
-71.28
-79.26
-87.12
-93
-94.81
-90.79
-80.12
-63.18
-41.53
-17.54
6.23
27.5
44.72
57.13
64.76
68.2
68.37
66.26
62.79
58.66
54.37
50.22
46.37
42.87
39.69
36.84
34.44
32.73
31.98
32.31
33.54
35.11
36.25
36.21
34.53
31.17
26.51
21.14
15.65
10.43
5.58
0.97
-3.69
-8.67
-14.14
-20.1
-26.36
-32.63
-38.56
-43.95
-48.77
-53.22
-57.75
-62.9
-69.09
-76.36
-84.11
-91.07
-95.48
-95.43
-89.49
-77.11
-58.93
-36.67
-12.73
10.36
30.52
46.43
57.63
64.32
67.16
66.95
64.55
60.77
56.35
51.93
47.96
44.69
42.11
40.08
38.42
37.06
36.04
35.48
35.47
35.93
36.61
37.08
36.88
35.66
33.27
29.81
25.56
20.87
16.01
11.12
6.18
1.04
-4.46
-10.42
-16.77
-23.3
-29.71
-35.73
-41.22
-46.21
-50.92
-55.74
-61.1
-67.39
-74.68
-82.55
-89.9
-95.08
-96.17
-91.59
-80.58
-63.55
-42.13
-18.69
4.2
24.39
40.52
52.16
59.52
63.2
63.91
62.28
58.9
54.35
49.28
44.34
40.12
37
35.08
34.23
34.21
34.77
35.7
36.86
38.12
39.25
39.9
39.64
38.09
35.05
30.66
25.37
19.78
14.43
9.59
5.17
0.86
-3.68
-8.71
-14.26
-20.16
-26.13
-31.89
-37.18
-41.9
-46.07
-49.92
-53.88
-58.5
-64.25
-71.28
-79.13
-86.67
-92.12
-93.5
-89.16
-78.33
-61.44
-40.07
-16.58
6.47
26.89
43.25
54.97
62.17
65.47
65.72
63.8
60.48
56.4
52.1
48.05
44.6
42.01
40.35
39.55
39.38
39.56
39.86
40.12
40.24
40.1
39.56
38.43
36.57
33.91
30.49
26.41
21.83
16.86
11.63
6.32
1.07
-4.01
-8.95
-13.91
-19.09
-24.59
-30.32
-35.98
-41.18
-45.71
-49.59
-53.21
-57.16
-62.05
-68.24
-75.62
-83.48
-90.5
-94.99
-95.23
-89.92
-78.51
-61.48
-40.24
-16.92
6.08
26.59
43.04
54.75
61.83
65
65.24
63.51
60.58
57.05
53.33
49.79
46.68
44.15
42.22
40.83
39.89
39.35
39.24
39.55
40.23
41.08
41.78
41.92
41.1
39.06
35.7
31.2
25.88
20.16
14.42
8.92
3.81
-0.9
-5.28
-9.48
-13.72
-18.24
-23.21
-28.67
-34.47
-40.31
-45.85
-50.86
-55.33
-59.49
-63.81
-68.78
-74.67
-81.35
-88.02
-93.24
-95.19
-92.12
-82.95
-67.67
-47.49
-24.54
-1.37
19.71
37.09
50
58.45
63
64.39
63.45
60.93
57.52
53.78
50.18
47.04
44.52
42.68
41.43
40.67
40.28
40.19
40.35
40.7
41.1
41.35
41.17
40.34
38.74
36.39
33.4
29.87
25.9
21.46
16.57
11.29
5.77
0.23
-5.09
-10.05
-14.62
-18.96
-23.27
-27.76
-32.52
-37.47
-42.36
-46.94
-51.04
-54.76
-58.44
-62.6
-67.73
-73.98
-80.92
-87.42
-91.81
-92.24
-87.23
-76.12
-59.41
-38.64
-15.99
6.15
25.79
41.56
52.88
59.83
62.96
63
60.76
57.01
52.4
47.52
42.87
38.83
35.67
33.49
32.26
31.87
32.15
32.93
33.99
35.1
35.99
36.42
36.19
35.2
33.41
30.85
27.57
23.69
19.37
14.82
10.22
5.7
1.3
-3.04
-7.48
-12.11
-16.99
-22.04
-27.11
-31.98
-36.49
-40.6
-44.36
-47.91
-51.43
-55.14
-59.31
-64.14
-69.72
-75.7
-81.21
-84.89
-85.12
-80.53
-70.51
-55.44
-36.7
-16.3
3.68
21.53
36.17
47.09
54.22
57.73
58.02
55.67
51.47
46.33
41.1
36.38
32.51
29.65
27.8
26.96
27.05
27.89
29.13
30.37
31.29
31.78
31.83
31.49
30.69
29.28
27.09
24.04
20.22
15.85
11.14
6.25
1.29
-3.73
-8.76
-13.76
-18.68
-23.45
-28.03
-32.34
-36.35
-40.07
-43.55
-46.95
-50.44
-54.31
-58.82
-64.12
-70.02
-75.86
-80.35
-81.92
-79.06
-70.86
-57.38
-39.66
-19.48
1.07
20.09
36.14
48.37
56.53
60.85
61.92
60.53
57.49
53.5
49.08
44.61
40.34
36.52
33.34
30.98
29.5
28.88
28.97
29.57
30.42
31.3
31.98
32.27
31.97
30.92
28.99
26.13
22.42
18.07
13.42
8.77
4.31
0.04
-4.22
-8.66
-13.42
-18.46
-23.66
-28.8
-33.72
-38.35
-42.67
-46.73
-50.68
-54.71
-59.13
-64.28
-70.28
-76.9
-83.3
-88.13
-89.73
-86.6
-77.86
-63.6
-44.93
-23.77
-2.34
17.31
33.76
46.3
54.88
59.9
61.96
61.7
59.67
56.43
52.51
48.43
44.62
41.38
38.81
36.9
35.56
34.72
34.34
34.4
34.82
35.44
36.01
36.2
35.75
34.42
32.14
28.95
25.01
20.56
15.9
11.26
6.8
2.58
-1.46
-5.43
-9.49
-13.75
-18.27
-23
-27.83
-32.58
-37.02
-41.01
-44.48
-47.52
-50.41
-53.66
-57.8
-63.25
-69.98
-77.26
-83.71
-87.53
-86.94
-80.75
-68.75
-51.76
-31.5
-10.14
10.18
27.78
41.58
51.24
56.93
59.23
58.87
56.61
53.14
49.06
44.91
41.08
37.87
35.44
33.78
32.8
32.41
32.48
33
33.86
34.93
35.94
36.56
36.5
35.57
33.78
31.28
28.29
24.95
21.31
17.37
13.09
8.51
3.69
-1.2
-6.01
-10.69
-15.21
-19.68
-24.18
-28.75
-33.35
-37.84
-42.09
-46.01
-49.65
-53.14
-56.75
-60.78
-65.49
-70.92
-76.65
-81.78
-84.92
-84.49
-79.21
-68.52
-52.85
-33.63
-12.88
7.23
24.92
39.06
49.2
55.52
58.51
58.85
57.19
54.08
50.03
45.49
40.93
36.82
33.54
31.35
30.26
30.1
30.57
31.38
32.29
33.1
33.67
33.81
33.33
32.06
29.9
26.88
23.16
18.98
14.62
10.34
6.32
2.6
-0.92
-4.47
-8.3
-12.6
-17.39
-22.5
-27.64
-32.48
-36.79
-40.47
-43.61
-46.45
-49.4
-52.91
-57.36
-62.83
-68.91
-74.59
-78.36
-78.64
-74.21
-64.63
-50.44
-33
-14.15
4.24
20.69
34.2
44.27
50.84
54.11
54.51
52.69
49.39
45.34
41.18
37.3
33.89
30.97
28.57
26.73
25.55
25.08
25.28
26
27.02
28.06
28.84
29.04
28.39
26.66
23.82
19.99
15.47
10.65
5.87
1.35
-2.89
-6.98
-11.09
-15.39
-19.92
-24.64
-29.44
-34.14
-38.6
-42.74
-46.58
-50.25
-54.01
-58.17
-62.99
-68.4
-73.84
-78.16
-79.86
-77.47
-70.05
-57.61
-41.11
-22.28
-3.07
14.72
29.85
41.63
49.92
54.93
57.02
56.69
54.47
50.95
46.73
42.39
38.39
35.02
32.41
30.52
29.31
28.73
28.72
29.22
30.1
31.11
31.99
32.45
32.25
31.19
29.1
25.97
21.88
17.16
12.24
7.49
3.07
-1.15
-5.47
-10.25
-15.62
-21.5
-27.54
-33.34
-38.54
-42.98
-46.76
-50.19
-53.73
-57.89
-63.05
-69.24
-75.94
-82.05
-86
-86.09
-81.05
-70.42
-54.74
-35.53
-14.84
5.2
22.85
37.02
47.36
54.07
57.67
58.81
58.05
55.88
52.7
48.97
45.13
41.61
38.77
36.75
35.52
34.93
34.78
34.94
35.3
35.76
36.18
36.32
35.91
34.74
32.73
29.95
26.61
22.9
18.96
14.81
10.4
5.7
0.76
-4.33
-9.44
-14.53
-19.63
-24.76
-29.86
-34.79
-39.38
-43.54
-47.39
-51.23
-55.45
-60.43
-66.34
-72.96
-79.68
-85.46
-88.9
-88.53
-83.11
-72.07
-55.8
-35.69
-13.85
7.4
26.08
40.93
51.51
57.98
60.97
61.21
59.5
56.56
53.08
49.58
46.44
43.8
41.64
39.87
38.48
37.49
36.98
36.97
37.34
37.87
38.27
38.28
37.72
36.49
34.53
31.86
28.48
24.43
19.81
14.77
9.57
4.45
-0.37
-4.83
-9.01
-13.16
-17.57
-22.42
-27.69
-33.17
-38.54
-43.52
-47.98
-52.09
-56.2
-60.78
-66.17
-72.34
-78.78
-84.39
-87.68
-87.12
-81.59
-70.73
-55.08
-36.04
-15.48
4.61
22.5
36.99
47.46
53.91
56.77
56.72
54.52
50.9
46.56
42.12
38.12
35.01
32.99
32.04
31.96
32.48
33.41
34.57
35.82
36.97
37.75
37.93
37.36
36.07
34.17
31.8
29
25.71
21.87
17.4
12.33
6.82
1.11
-4.53
-9.86
-14.78
-19.34
-23.67
-27.85
-31.85
-35.55
-38.85
-41.84
-44.79
-48.13
-52.29
-57.48
-63.68
-70.44
-76.97
-82.08
-84.37
-82.44
-75.38
-63.03
-46.23
-26.63
-6.31
12.71
28.92
41.51
50.32
55.69
58.15
58.3
56.69
53.76
49.97
45.77
41.61
37.93
35.01
32.97
31.75
31.18
31.07
31.26
31.56
31.81
31.85
31.55
30.81
29.57
27.76
25.34
22.31
18.75
14.79
10.62
6.36
2.04
-2.46
-7.29
-12.52
-18.11
-23.83
-29.38
-34.49
-39
-42.93
-46.48
-49.99
-53.87
-58.58
-64.4
-71.31
-78.78
-85.67
-90.32
-90.95
-86.11
-75.18
-58.68
-38.18
-15.97
5.55
24.45
39.54
50.51
57.68
61.67
63.17
62.76
60.95
58.15
54.79
51.28
48.03
45.3
43.23
41.86
41.14
40.99
41.33
41.99
42.78
43.43
43.61
42.97
41.28
38.41
34.44
29.64
24.44
19.29
14.55
10.34
6.54
2.83
-1.19
-5.84
-11.23
-17.23
-23.51
-29.62
-35.14
-39.82
-43.68
-47.05
-50.47
-54.54
-59.73
-66.15
-73.44
-80.66
-86.38
-89.02
-87.09
-79.69
-66.78
-49.28
-28.89
-7.7
12.22
29.33
42.69
52.05
57.71
60.26
60.43
58.92
56.26
52.87
49.11
45.24
41.53
38.26
35.66
33.96
33.26
33.5
34.44
35.76
37.05
38.01
38.42
38.17
37.11
35.09
32
27.77
22.63
16.94
11.24
5.93
1.18
-3.12
-7.3
-11.67
-16.44
-21.62
-27.02
-32.37
-37.39
-41.89
-45.82
-49.26
-52.4
-55.61
-59.32
-63.9
-69.48
-75.65
-81.37
-85.07
-85.04
-79.93
-69.18
-53.33
-33.85
-12.83
7.59
25.57
39.9
50.01
56.02
58.48
58.27
56.32
53.46
50.26
47.04
43.9
40.89
38.05
35.46
33.33
31.9
31.36
31.77
32.99
34.63
36.21
37.22
37.34
36.42
34.5
31.62
27.88
23.41
18.49
13.49
8.76
4.55
0.84
-2.65
-6.27
-10.34
-14.99
-20.18
-25.75
-31.43
-36.89
-41.75
-45.64
-48.47
-50.51
-52.46
-55.25
-59.64
-65.85
-73.22
-80.26
-84.93
-85.17
-79.55
-67.67
-50.35
-29.48
-7.56
12.91
29.9
42.28
49.91
53.4
53.83
52.34
49.78
46.6
42.98
39.02
34.91
31.05
27.97
26.06
25.37
25.65
26.45
27.37
28.28
29.24
30.36
31.48
32.14
31.66
29.49
25.5
20.07
14.01
8.18
3.17
-0.88
-4.28
-7.5
-10.99
-14.94
-19.22
-23.57
-27.68
-31.42
-34.81
-38.09
-41.53
-45.48
-50.22
-55.93
-62.5
-69.4
-75.57
-79.5
-79.6
-74.65
-64.3
-49.22
-30.93
-11.45
7.27
23.68
36.79
46.17
51.88
54.31
54.07
51.91
48.5
44.47
40.28
36.3
32.82
30.04
28.07
26.88
26.37
26.36
26.73
27.34
28.09
28.85
29.41
29.52
28.88
27.31
24.72
21.23
17.1
12.64
8.13
3.67
-0.83
-5.52
-10.53
-15.85
-21.27
-26.45
-31.11
-35.11
-38.57
-41.78
-45.18
-49.2
-54.17
-60.18
-66.9
-73.54
-78.8
-81.13
-79.11
-71.93
-59.65
-43.33
-24.71
-5.82
11.52
26.05
37.18
44.89
49.59
51.85
52.25
51.3
49.38
46.77
43.71
40.43
37.17
34.23
31.89
30.36
29.73
29.94
30.79
32
33.26
34.26
34.72
34.38
33.01
30.5
26.9
22.43
17.53
12.64
8.09
3.93
-0.01
-4.1
-8.66
-13.85
-19.61
-25.62
-31.46
-36.71
-41.14
-44.74
-47.76
-50.69
-54.09
-58.47
-64.02
-70.43
-76.74
-81.45
-82.83
-79.47
-70.67
-56.83
-39.26
-19.89
-0.71
16.61
31.01
41.95
49.35
53.43
54.62
53.55
50.91
47.39
43.59
39.93
36.71
34.07
32.09
30.75
29.97
29.64
29.65
29.89
30.33
30.92
31.54
31.95
31.79
30.71
28.43
24.94
20.47
15.49
10.56
6.11
2.35
-0.83
-3.83
-7.14
-11.12
-15.87
-21.15
-26.52
-31.52
-35.88
-39.62
-42.99
-46.41
-50.27
-54.86
-60.16
-65.75
-70.67
-73.6
-73.06
-67.93
-57.78
-43.21
-25.7
-7.2
10.32
25.37
37.11
45.32
50.17
52.05
51.48
49.03
45.37
41.15
37.02
33.42
30.61
28.63
27.36
26.64
26.32
26.3
26.53
26.95
27.5
28.02
28.33
28.16
27.29
25.57
22.99
19.75
16.12
12.43
8.86
5.42
1.96
-1.8
-6.09
-11
-16.37
-21.87
-27.08
-31.67
-35.54
-38.86
-41.94
-45.23
-49.03
-53.51
-58.61
-64
-69.06
-72.81
-74.11
-71.82
-65.19
-54.13
-39.35
-22.28
-4.74
11.5
25.1
35.31
42.02
45.55
46.47
45.38
42.84
39.35
35.35
31.3
27.59
24.55
22.36
21.03
20.43
20.37
20.7
21.31
22.14
23.04
23.74
23.9
23.15
21.26
18.29
14.56
10.48
6.43
2.54
-1.27
-5.26
-9.66
-14.56
-19.87
-25.38
-30.87
-36.12
-41
-45.52
-49.79
-54.02
-58.43
-63.09
-67.68
-71.38
-73.01
-71.26
-65.21
-54.61
-40.07
-22.96
-4.99
12.12
27.06
39.01
47.7
53.25
56.02
56.45
55.01
52.11
48.18
43.69
39.13
34.98
31.6
29.18
27.73
27.13
27.17
27.63
28.3
28.94
29.32
29.16
28.21
26.33
23.51
19.94
15.94
11.83
7.86
4.04
0.2
-3.97
-8.7
-14.04
-19.78
-25.57
-31.08
-36.16
-40.88
-45.51
-50.41
-55.88
-62.04
-68.69
-75.15
-80.22
-82.41
-80.29
-72.94
-60.42
-43.86
-25.15
-6.43
10.49
24.54
35.36
43.15
48.3
51.19
52.11
51.32
49.12
45.89
42.13
38.3
34.75
31.7
29.29
27.6
26.67
26.54
27.14
28.29
29.64
30.73
31.06
30.28
28.22
25.01
20.97
16.52
11.99
7.55
3.17
-1.29
-6.02
-11.11
-16.57
-22.26
-28.03
-33.65
-38.92
-43.71
-47.99
-52
-56.16
-61
-66.82
-73.34
-79.57
-83.9
-84.52
-80.08
-70.11
-55.24
-36.98
-17.28
1.91
19.05
33.1
43.6
50.53
54.17
55.11
54.02
51.64
48.65
45.57
42.74
40.28
38.22
36.5
35.07
33.97
33.33
33.26
33.82
34.92
36.28
37.41
37.75
36.79
34.24
30.18
25.07
19.52
14.08
9.03
4.31
-0.39
-5.39
-10.86
-16.71
-22.64
-28.31
-33.47
-38.07
-42.32
-46.59
-51.34
-56.93
-63.47
-70.64
-77.61
-83.12
-85.67
-83.88
-76.87
-64.6
-47.96
-28.61
-8.62
9.99
25.7
37.72
45.91
50.66
52.59
52.32
50.36
47.1
42.87
38.06
33.17
28.78
25.45
23.59
23.33
24.57
26.92
29.93
33
35.59
37.15
37.29
35.81
32.8
28.61
23.77
18.85
14.2
9.9
5.72
1.29
-3.77
-9.6
-16.07
-22.81
-29.34
-35.27
-40.47
-45.11
-49.62
-54.61
-60.58
-67.66
-75.46
-82.87
-88.25
-89.76
-85.89
-75.93
-60.25
-40.27
-18.13
3.84
23.62
39.84
51.81
59.5
63.31
63.89
62.01
58.47
54.04
49.44
45.22
41.78
39.31
37.79
37.15
37.3
38.13
39.55
41.42
43.4
45.05
45.84
45.33
43.27
39.7
34.91
29.37
23.57
17.9
12.58
7.58
2.63
-2.58
-8.3
-14.52
-21
-27.31
-33.1
-38.24
-42.93
-47.67
-53
-59.4
-66.94
-75.2
-83.13
-89.22
-91.69
-88.95
-80.15
-65.42
-46.04
-24.09
-1.92
18.37
35.31
48.2
56.97
61.96
63.75
62.99
60.36
56.53
52.11
47.66
43.6
40.29
37.9
36.48
35.94
36.09
36.74
37.66
38.7
39.63
40.19
40.05
38.93
36.64
33.18
28.82
23.91
18.86
13.95
9.28
4.74
0.13
-4.79
-10.14
-15.85
-21.73
-27.54
-33.02
-38.07
-42.74
-47.23
-51.81
-56.83
-62.56
-69.02
-75.76
-81.78
-85.56
-85.45
-80.13
-69.15
-53.17
-33.81
-13.25
6.42
23.57
37.28
47.21
53.4
56.08
55.64
52.72
48.14
42.87
37.81
33.58
30.43
28.3
26.96
26.29
26.25
26.91
28.21
29.94
31.62
32.68
32.65
31.32
28.73
25.2
21.12
16.84
12.61
8.45
4.22
-0.29
-5.29
-10.91
-17.06
-23.51
-29.92
-35.94
-41.37
-46.26
-50.91
-55.76
-61.27
-67.58
-74.31
-80.41
-84.31
-84.34
-79.17
-68.32
-52.43
-33.08
-12.38
7.48
24.82
38.63
48.61
54.91
57.97
58.26
56.3
52.63
47.85
42.61
37.51
33.04
29.48
26.99
25.61
25.3
25.99
27.5
29.53
31.63
33.21
33.71
32.69
30.05
25.96
20.95
15.66
10.64
6.16
2.14
-1.73
-5.88
-10.59
-15.91
-21.6
-27.3
-32.68
-37.59
-42.13
-46.65
-51.6
-57.4
-64.16
-71.56
-78.64
-83.96
-85.83
-82.86
-74.33
-60.54
-42.77
-22.95
-3.11
15.02
30.29
42.18
50.62
55.86
58.3
58.41
56.72
53.72
49.93
45.82
41.81
38.29
35.56
33.77
32.86
32.65
32.89
33.36
33.93
34.53
35.06
35.29
34.86
33.34
30.45
26.16
20.81
14.97
9.22
3.93
-0.91
-5.58
-10.47
-15.86
-21.76
-27.93
-33.98
-39.56
-44.51
-48.88
-52.96
-57.18
-61.98
-67.65
-74.12
-80.76
-86.39
-89.44
-88.35
-82.01
-70.13
-53.41
-33.41
-12.18
8.24
26.16
40.53
50.97
57.62
60.99
61.69
60.37
57.63
54.04
50.13
46.34
43.02
40.41
38.57
37.48
37.01
37.02
37.37
37.89
38.45
38.88
38.96
38.42
36.98
34.47
30.82
26.21
21.01
15.67
10.61
6.05
1.98
-1.8
-5.6
-9.68
-14.21
-19.15
-24.3
-29.38
-34.08
-38.25
-41.91
-45.28
-48.73
-52.69
-57.47
-63.11
-69.2
-74.86
-78.78
-79.42
-75.47
-66.29
-52.15
-34.31
-14.74
4.45
21.4
34.94
44.56
50.38
52.89
52.73
50.57
47.03
42.68
38.04
33.59
29.74
26.8
24.89
23.94
23.76
24.14
24.87
25.87
27.05
28.26
29.24
29.6
28.96
27.05
23.88
19.71
14.99
10.21
5.66
1.4
-2.8
-7.27
-12.27
-17.81
-23.62
-29.2
-34.07
-37.98
-40.96
-43.41
-45.91
-49.06
-53.3
-58.67
-64.67
-70.25
-73.92
-74.07
-69.46
-59.6
-44.97
-27
-7.67
10.96
27.16
39.84
48.58
53.52
55.2
54.33
51.61
47.68
43.06
38.21
33.54
29.43
26.2
24
22.83
22.56
22.95
23.79
24.84
25.81
26.43
26.4
25.51
23.63
20.79
17.11
12.72
7.77
2.36
-3.4
-9.4
-15.47
-21.43
-27.1
-32.32
-36.99
-41.12
-44.85
-48.45
-52.31
-56.8
-62.07
-67.86
-73.34
-77.14
-77.68
-73.57
-64.17
-49.87
-32.08
-12.92
5.38
21.02
32.93
40.85
45.14
46.5
45.7
43.4
40.1
36.21
32.04
27.91
24.11
20.87
18.37
16.74
16.09
16.45
17.73
19.69
21.89
23.8
24.89
24.76
23.3
20.64
17.1
13.02
8.72
4.37
-0.02
-4.5
-9.17
-14.05
-19.1
-24.16
-29.03
-33.52
-37.55
-41.3
-45.14
-49.55
-54.83
-60.84
-66.75
-71.11
-72.18
-68.47
-59.31
-45.1
-27.28
-7.9
10.89
27.39
40.48
49.77
55.33
57.61
57.21
54.81
51.11
46.73
42.23
37.99
34.33
31.44
29.47
28.48
28.41
29.06
30.13
31.3
32.31
32.99
33.22
32.86
31.77
29.75
26.69
22.64
17.87
12.82
7.95
3.6
-0.19
-3.61
-7.04
-10.81
-15.09
-19.78
-24.61
-29.23
-33.39
-37.03
-40.27
-43.32
-46.45
-49.95
-54.16
-59.28
-65.26
-71.5
-76.79
-79.48
-77.93
-71.07
-58.83
-42.23
-23.11
-3.56
14.51
29.75
41.39
49.22
53.47
54.63
53.4
50.55
46.77
42.63
38.54
34.81
31.65
29.25
27.74
27.14
27.36
28.22
29.48
30.94
32.36
33.49
34.05
33.76
32.49
30.27
27.28
23.82
20.12
16.32
12.43
8.48
4.47
0.54
-3.22
-6.76
-10.14
-13.55
-17.18
-21.13
-25.38
-29.79
-34.19
-38.41
-42.36
-46.06
-49.62
-53.3
-57.41
-62.26
-67.88
-73.83
-79.1
-82.24
-81.68
-76.27
-65.63
-50.31
-31.76
-11.89
7.34
24.27
37.79
47.39
53.14
55.51
55.24
53.15
50.02
46.47
42.95
39.73
36.91
34.51
32.47
30.82
29.66
29.15
29.41
30.44
31.98
33.59
34.73
34.96
34.11
32.23
29.61
26.56
23.29
19.86
16.25
12.41
8.33
4.09
-0.18
-4.37
-8.46
-12.52
-16.69
-21.07
-25.61
-30.18
-34.49
-38.36
-41.78
-44.89
-47.96
-51.31
-55.22
-59.9
-65.37
-71.34
-76.96
-80.93
-81.61
-77.57
-68.12
-53.67
-35.65
-16.15
2.75
19.45
33.05
43.27
50.24
54.21
55.56
54.7
52.17
48.6
44.61
40.73
37.26
34.33
31.89
29.89
28.36
27.41
27.25
27.94
29.32
30.95
32.28
32.76
32.08
30.26
27.55
24.31
20.85
17.34
13.82
10.26
6.65
3.03
-0.57
-4.09
-7.5
-10.84
-14.17
-17.59
-21.18
-24.98
-28.96
-33.02
-37.01
-40.77
-44.29
-47.66
-51.14
-55.07
-59.76
-65.26
-71.17
-76.59
-80.16
-80.37
-76.01
-66.54
-52.39
-34.87
-15.84
2.79
19.48
33.33
43.99
51.55
56.24
58.29
57.98
55.61
51.59
46.5
41.01
35.7
31.04
27.23
24.37
22.42
21.34
21.13
21.8
23.25
25.25
27.37
29.08
29.83
29.26
27.31
24.26
20.62
16.97
13.76
11.2
9.19
7.45
5.68
3.62
1.14
-1.83
-5.33
-9.35
-13.83
-18.61
-23.48
-28.22
-32.74
-37.16
-41.79
-47.02
-53.05
-59.76
-66.52
-72.21
-75.42
-74.81
-69.43
-59.07
-44.31
-26.48
-7.3
11.5
28.45
42.56
53.32
60.57
64.42
65.18
63.3
59.37
54.05
47.99
41.8
35.97
30.91
26.92
24.21
22.83
22.65
23.31
24.32
25.19
25.51
25.07
23.86
21.99
19.66
17.07
14.33
11.51
8.55
5.37
1.82
-2.17
-6.68
-11.72
-17.22
-23.02
-28.87
-34.49
-39.64
-44.21
-48.31
-52.23
-56.37
-61.09
-66.56
-72.58
-78.48
-83.17
-85.31
-83.61
-77.2
-65.97
-50.67
-32.81
-14.31
2.97
17.58
28.71
36.13
40.07
41.02
39.63
36.59
32.7
28.67
25.11
22.4
20.63
19.7
19.37
19.43
19.78
20.45
21.52
23.05
24.94
26.87
28.37
28.9
28.09
25.81
22.34
18.17
13.88
9.9
6.42
3.36
0.44
-2.69
-6.3
-10.49
-15.12
-19.88
-24.35
-28.23
-31.41
-34.16
-36.99
-40.53
-45.19
-50.88
-56.81
-61.61
-63.58
-61.22
-53.71
-41.18
-24.75
-6.24
12.27
28.82
41.92
50.77
55.26
55.85
53.46
49.19
44.08
39.03
34.65
31.3
29.11
28.01
27.78
28.15
28.8
29.41
29.73
29.53
28.62
26.86
24.25
20.85
16.88
12.51
7.91
3.13
-1.83
-7.01
-12.46
-18.19
-24.1
-30
-35.55
-40.34
-44.07
-46.73
-48.67
-50.53
-52.99
-56.49
-60.87
-65.36
-68.66
-69.28
-65.89
-57.75
-44.88
-28.16
-9.17
10.16
27.95
42.71
53.61
60.46
63.57
63.59
61.24
57.22
52.12
46.46
40.67
35.16
30.34
26.59
24.11
22.95
22.86
23.4
24.05
24.3
23.89
22.73
20.93
18.66
16.13
13.49
10.82
8.12
5.34
2.36
-0.92
-4.56
-8.53
-12.75
-17.2
-21.96
-27.24
-33.32
-40.32
-48.08
-55.94
-62.84
-67.39
-68.3
-64.72
-56.46
-44.17
-29.12
-12.95
2.7
16.47
27.46
35.3
40.09
42.24
42.29
40.77
38.11
34.67
30.78
26.82
23.23
20.38
18.53
17.73
17.8
18.43
19.23
19.84
19.94
19.31
17.82
15.5
12.47
8.97
5.25
1.47
-2.31
-6.17
-10.22
-14.57
-19.14
-23.8
-28.38
-32.78
-37.08
-41.55
-46.47
-52.06
-58.14
-64.12
-69
-71.54
-70.54
-65.23
-55.46
-41.79
-25.44
-8.04
8.78
23.55
35.3
43.56
48.33
49.98
49.05
46.22
42.15
37.5
32.87
28.7
25.32
22.88
21.48
21.12
21.73
23.11
24.81
26.27
26.91
26.42
24.77
22.28
19.32
16.12
12.66
8.71
4.06
-1.32
-7.22
-13.31
-19.29
-24.98
-30.41
-35.65
-40.88
-46.3
-52.11
-58.4
-65.03
-71.41
-76.46
-78.73
-76.79
-69.66
-57.21
-40.28
-20.48
0.19
19.71
36.52
49.57
58.48
63.39
64.86
63.67
60.69
56.69
52.28
47.89
43.77
40.12
37.07
34.67
32.93
31.71
30.84
30.17
29.57
29
28.41
27.65
26.54
24.83
22.38
19.26
15.69
11.95
8.19
4.41
0.39
-4.12
-9.27
-15
-21.07
-27.19
-33.12
-38.8
-44.3
-49.83
-55.65
-61.92
-68.51
-74.87
-80.01
-82.64
-81.45
-75.52
-64.65
-49.43
-31.24
-11.86
6.8
23.2
36.33
45.84
51.98
55.27
56.39
55.88
54.18
51.64
48.58
45.34
42.28
39.63
37.54
36.01
35.02
34.54
34.51
34.87
35.44
35.99
36.19
35.73
34.36
31.91
28.44
24.14
19.34
14.45
9.76
5.45
1.47
-2.35
-6.27
-10.52
-15.21
-20.26
-25.45
-30.51
-35.19
-39.42
-43.37
-47.41
-51.95
-57.32
-63.48
-70.01
-76.04
-80.31
-81.48
-78.35
-70.21
-57.21
-40.32
-21.25
-2.01
15.5
29.95
40.65
47.57
51.13
52.06
51.16
49.24
46.96
44.76
42.85
41.23
39.83
38.66
37.74
37.17
36.97
37.05
37.22
37.31
37.15
36.65
35.76
34.41
32.53
30.05
26.94
23.3
19.28
15.06
10.79
6.57
2.43
-1.68
-5.82
-10.11
-14.64
-19.41
-24.33
-29.2
-33.76
-37.85
-41.44
-44.71
-47.95
-51.55
-55.79
-60.84
-66.62
-72.68
-78.16
-81.8
-82.12
-77.92
-68.66
-54.72
-37.41
-18.55
-0.08
16.43
29.98
40.11
46.84
50.52
51.63
50.78
48.6
45.67
42.48
39.44
36.82
34.8
33.49
32.89
32.96
33.59
34.63
35.85
36.99
37.76
37.88
37.18
35.62
33.31
30.49
27.41
24.31
21.3
18.36
15.39
12.25
8.85
5.18
1.32
-2.63
-6.5
-10.23
-13.79
-17.24
-20.68
-24.2
-27.86
-31.63
-35.4
-39.06
-42.56
-46.01
-49.64
-53.77
-58.65
-64.26
-70.15
-75.38
-78.62
-78.46
-73.83
-64.32
-50.36
-33.21
-14.6
3.63
19.87
33.08
42.71
48.73
51.47
51.51
49.62
46.61
43.22
39.97
37.14
34.77
32.72
30.91
29.33
28.12
27.51
27.66
28.61
30.17
31.96
33.55
34.51
34.56
33.6
31.73
29.2
26.3
23.29
20.32
17.37
14.32
10.99
7.25
3.13
-1.22
-5.51
-9.45
-12.91
-15.97
-18.83
-21.77
-24.96
-28.42
-32.07
-35.79
-39.48
-43.08
-46.53
-49.87
-53.25
-56.96
-61.29
-66.31
-71.49
-75.64
-77.09
-74.24
-66.19
-53.14
-36.44
-18.12
-0.29
15.42
28.06
37.37
43.45
46.62
47.29
45.98
43.32
39.93
36.36
32.95
29.88
27.2
24.96
23.3
22.37
22.28
23.01
24.34
25.96
27.49
28.63
29.15
28.9
27.85
26.1
23.79
21.17
18.41
15.61
12.72
9.59
6.08
2.14
-2.13
-6.54
-10.92
-15.16
-19.26
-23.28
-27.23
-31.09
-34.78
-38.21
-41.36
-44.27
-47.08
-50.04
-53.43
-57.53
-62.37
-67.57
-72.24
-75.06
-74.56
-69.66
-60
-46.11
-29.36
-11.53
5.62
20.67
32.77
41.64
47.39
50.44
51.26
50.35
48.1
44.83
40.87
36.55
32.28
28.52
25.64
23.89
23.32
23.74
24.91
26.47
28.11
29.5
30.37
30.5
29.81
28.32
26.13
23.42
20.31
16.95
13.43
9.86
6.32
2.83
-0.66
-4.31
-8.28
-12.67
-17.44
-22.41
-27.3
-31.85
-35.92
-39.53
-42.88
-46.27
-50.08
-54.59
-59.95
-65.99
-72.09
-77.18
-79.87
-78.74
-72.83
-61.92
-46.75
-28.85
-10.16
7.47
22.63
34.52
42.87
47.93
50.14
50.1
48.45
45.73
42.42
38.88
35.37
32.09
29.23
26.9
25.22
24.24
23.99
24.39
25.3
26.57
27.96
29.24
30.13
30.37
29.77
28.2
25.66
22.31
18.42
14.29
10.14
6
1.78
-2.73
-7.67
-13.02
-18.6
-24.1
-29.28
-33.99
-38.22
-42.13
-45.9
-49.77
-53.97
-58.75
-64.3
-70.54
-76.92
-82.32
-85.17
-83.89
-77.38
-65.5
-49.18
-30.16
-10.56
7.67
23.14
35.09
43.41
48.35
50.46
50.38
48.82
46.39
43.57
40.71
37.95
35.44
33.22
31.42
30.15
29.53
29.6
30.29
31.43
32.78
34.05
34.99
35.37
34.98
33.71
31.44
28.19
24.1
19.5
14.79
10.38
6.49
3.08
-0.17
-3.69
-7.89
-12.93
-18.67
-24.75
-30.73
-36.27
-41.2
-45.58
-49.68
-53.88
-58.59
-64.12
-70.54
-77.42
-83.8
-88.16
-88.83
-84.39
-74.18
-58.63
-39.22
-18.1
2.44
20.51
34.91
45.2
51.52
54.39
54.52
52.63
49.51
45.83
42.2
39.04
36.54
34.72
33.48
32.7
32.38
32.59
33.4
34.77
36.49
38.19
39.43
39.86
39.25
37.59
35.02
31.77
28.05
24.07
19.96
15.77
11.51
7.13
2.62
-2.04
-6.87
-11.85
-17
-22.29
-27.63
-32.86
-37.79
-42.27
-46.3
-50.05
-53.9
-58.37
-63.87
-70.52
-77.86
-84.76
-89.55
-90.35
-85.68
-74.94
-58.71
-38.62
-16.96
3.92
22.17
36.67
47.06
53.55
56.7
57.16
55.61
52.68
48.91
44.82
40.87
37.42
34.75
33.02
32.26
32.44
33.43
35.05
37.12
39.37
41.52
43.22
44.18
44.16
43.08
40.99
38.04
34.41
30.25
25.67
20.81
15.82
10.85
6.04
1.4
-3.18
-7.9
-12.93
-18.32
-23.98
-29.71
-35.28
-40.52
-45.36
-49.79
-53.94
-58.08
-62.64
-68.07
-74.56
-81.7
-88.31
-92.55
-92.39
-86.33
-73.9
-55.94
-34.37
-11.65
9.81
28.15
42.34
52.09
57.76
60.04
59.75
57.66
54.43
50.62
46.67
42.97
39.83
37.47
35.97
35.33
35.49
36.34
37.75
39.46
41.09
42.21
42.44
41.61
39.8
37.27
34.26
30.96
27.35
23.32
18.81
13.85
8.66
3.51
-1.4
-6.08
-10.66
-15.39
-20.4
-25.65
-30.9
-35.83
-40.19
-43.89
-47.12
-50.28
-53.97
-58.68
-64.72
-71.95
-79.6
-86.3
-90.23
-89.64
-83.27
-70.89
-53.38
-32.59
-10.83
9.66
27.15
40.69
50.02
55.41
57.39
56.62
53.79
49.53
44.5
39.31
34.53
30.65
27.99
26.65
26.58
27.52
29.18
31.32
33.71
36.18
38.51
40.38
41.41
41.21
39.54
36.44
32.15
27.13
21.84
16.59
11.49
6.38
1.05
-4.71
-10.96
-17.53
-24.19
-30.64
-36.67
-42.19
-47.25
-51.99
-56.72
-61.84
-67.8
-74.76
-82.39
-89.67
-94.95
-96.34
-92.3
-82.15
-66.24
-46.02
-23.52
-0.97
19.63
36.81
49.74
58.23
62.6
63.53
61.82
58.29
53.65
48.51
43.42
38.91
35.41
33.19
32.32
32.6
33.71
35.28
37.04
38.82
40.53
42.01
42.95
42.94
41.54
38.49
33.88
28.09
21.76
15.47
9.6
4.15
-1.17
-6.76
-12.94
-19.75
-26.93
-34
-40.46
-46.01
-50.64
-54.69
-58.72
-63.39
-69.24
-76.46
-84.66
-92.73
-98.88
-100.97
-97.14
-86.42
-69.2
-47.24
-23.14
0.36
21.07
37.73
49.99
58.05
62.41
63.6
62.21
58.89
54.39
49.52
45.02
41.44
39.04
37.79
37.47
37.79
38.52
39.55
40.87
42.4
43.92
44.95
44.93
43.34
40.05
35.34
29.83
24.26
19.17
14.73
10.72
6.66
2.06
-3.38
-9.7
-16.65
-23.86
-30.94
-37.64
-43.88
-49.7
-55.27
-60.87
-66.83
-73.51
-80.97
-88.71
-95.46
-99.26
-98.03
-90.3
-75.85
-55.97
-33.06
-9.94
10.95
28.03
40.71
49.14
53.88
55.66
55.27
53.49
51.01
48.34
45.8
43.53
41.53
39.75
38.19
36.88
35.91
35.39
35.44
36.1
37.26
38.58
39.55
39.59
38.27
35.49
31.51
26.87
22.13
17.69
13.59
9.6
5.38
0.6
-4.86
-10.9
-17.25
-23.55
-29.54
-35.07
-40.19
-45.09
-50.06
-55.41
-61.49
-68.55
-76.55
-84.93
-92.43
-97.26
-97.56
-92.11
-80.85
-65.01
-46.55
-27.46
-9.09
7.88
23.21
36.55
47.23
54.48
57.89
57.83
55.39
51.98
48.77
46.33
44.65
43.46
42.63
42.28
42.66
43.94
45.97
48.28
50.3
51.49
51.55
50.39
48.03
44.53
40.01
34.62
28.67
22.52
16.52
10.91
5.68
0.63
-4.55
-10.15
-16.3
-22.89
-29.59
-35.94
-41.59
-46.43
-50.68
-54.88
-59.73
-65.85
-73.5
-82.27
-91.02
-97.9
-100.74
-97.65
-87.61
-70.95
-49.35
-25.4
-1.85
19.05
36.02
48.65
57.2
62.2
64.26
63.99
62.03
59.04
55.65
52.38
49.57
47.36
45.8
44.94
44.78
45.3
46.41
47.89
49.42
50.68
51.35
51.15
49.89
47.43
43.77
39.02
33.46
27.5
21.6
16.11
11.15
6.56
1.95
-3.06
-8.72
-14.98
-21.5
-27.81
-33.5
-38.36
-42.46
-46.07
-49.63
-53.66
-58.71
-65.13
-72.87
-81.23
-88.74
-93.45
-93.36
-87.06
-74.27
-56
-34.26
-11.65
9.45
27.27
40.89
50.17
55.47
57.38
56.57
53.74
49.57
44.82
40.19
36.25
33.35
31.62
30.95
31.17
32.09
33.53
35.35
37.31
39.16
40.55
41.1
40.52
38.64
35.48
31.27
26.4
21.28
16.26
11.49
6.87
2.13
-3.07
-8.95
-15.46
-22.33
-29.05
-35.14
-40.31
-44.6
-48.4
-52.29
-56.93
-62.76
-69.71
-77.03
-83.28
-86.6
-85.2
-77.96
-64.82
-46.92
-26.27
-5.22
14.16
30.47
43.02
51.77
56.93
58.95
58.33
55.64
51.59
46.88
42.23
38.19
35.08
33.02
31.94
31.73
32.31
33.59
35.39
37.42
39.22
40.26
40.07
38.38
35.2
30.79
25.58
20.07
14.63
9.51
4.74
0.13
-4.6
-9.72
-15.4
-21.56
-27.93
-34.1
-39.71
-44.6
-48.91
-53.04
-57.53
-62.89
-69.31
-76.47
-83.44
-88.75
-90.61
-87.49
-78.54
-64.02
-45.3
-24.55
-4.06
14.26
29.32
40.75
48.68
53.41
55.32
54.82
52.51
49.11
45.34
41.82
38.9
36.69
35.16
34.21
33.75
33.73
34.08
34.73
35.6
36.52
37.26
37.43
36.63
34.51
30.96
26.16
20.54
14.65
8.97
3.74
-1.02
-5.5
-9.99
-14.72
-19.82
-25.25
-30.82
-36.29
-41.43
-46.08
-50.25
-54.14
-58.13
-62.71
-68.26
-74.77
-81.54
-87.09
-89.45
-86.79
-78.04
-63.37
-44.27
-23.03
-2.12
16.53
31.82
43.42
51.51
56.44
58.58
58.34
56.23
52.89
49
45.16
41.79
39.12
37.14
35.75
34.89
34.52
34.67
35.3
36.27
37.29
37.93
37.79
36.56
34.14
30.62
26.26
21.41
16.42
11.52
6.83
2.31
-2.21
-6.91
-11.91
-17.19
-22.57
-27.81
-32.66
-37.01
-40.86
-44.38
-47.83
-51.57
-55.99
-61.45
-68
-75.23
-82.08
-87
-88.21
-84.33
-74.78
-60.03
-41.55
-21.34
-1.44
16.48
31.38
42.8
50.74
55.4
57.13
56.37
53.65
49.6
44.86
40.02
35.6
31.96
29.34
27.82
27.45
28.09
29.5
31.3
33.08
34.47
35.17
35.05
34.05
32.16
29.38
25.75
21.4
16.56
11.6
6.79
2.28
-2.03
-6.4
-11.11
-16.29
-21.8
-27.32
-32.44
-36.89
-40.65
-43.92
-47.08
-50.53
-54.61
-59.57
-65.45
-71.87
-77.95
-82.26
-83.08
-78.87
-68.97
-53.85
-35.13
-15.09
4
20.47
33.48
42.86
48.85
51.75
51.87
49.62
45.59
40.58
35.39
30.73
27
24.3
22.57
21.68
21.5
21.95
22.94
24.29
25.75
26.98
27.66
27.52
26.42
24.38
21.51
18.06
14.29
10.45
6.7
3.03
-0.71
-4.75
-9.3
-14.4
-19.86
-25.34
-30.45
-34.91
-38.66
-41.85
-44.89
-48.24
-52.41
-57.69
-64.02
-70.76
-76.64
-79.97
-79.06
-72.78
-60.98
-44.67
-25.71
-6.28
11.69
26.84
38.49
46.52
51.09
52.62
51.63
48.79
44.83
40.43
36.11
32.21
28.85
26.04
23.75
21.96
20.76
20.32
20.85
22.43
24.86
27.6
29.85
30.82
30.06
27.56
23.79
19.39
14.87
10.47
6.06
1.39
-3.78
-9.55
-15.78
-22.2
-28.44
-34.17
-39.16
-43.44
-47.21
-50.92
-55.05
-60.03
-65.96
-72.51
-78.78
-83.37
-84.65
-81.25
-72.43
-58.48
-40.68
-21.02
-1.6
15.8
30.04
40.63
47.57
51.19
51.96
50.53
47.59
43.81
39.8
35.99
32.61
29.8
27.6
26.09
25.31
25.3
25.98
27.21
28.73
30.18
31.14
31.21
30.09
27.72
24.29
20.18
15.79
11.42
7.13
2.8
-1.8
-6.85
-12.35
-18.11
-23.83
-29.21
-34.11
-38.61
-42.99
-47.62
-52.88
-58.98
-65.82
-72.89
-79.2
-83.39
-83.93
-79.55
-69.69
-54.8
-36.34
-16.41
2.84
19.75
33.42
43.67
50.72
54.92
56.59
56.04
53.7
50.13
46
41.93
38.35
35.47
33.27
31.68
30.65
30.2
30.44
31.37
32.84
34.39
35.38
35.18
33.37
29.97
25.39
20.26
15.18
10.55
6.43
2.6
-1.31
-5.67
-10.73
-16.52
-22.8
-29.15
-35.12
-40.4
-44.91
-48.88
-52.76
-57.08
-62.25
-68.34
-74.85
-80.67
-84.17
-83.61
-77.74
-66.21
-49.87
-30.53
-10.43
8.37
24.48
37.24
46.57
52.67
55.79
56.28
54.58
51.35
47.36
43.36
39.91
37.28
35.46
34.29
33.6
33.3
33.41
33.99
35
36.21
37.2
37.47
36.58
34.33
30.84
26.49
21.74
16.91
12.16
7.4
2.45
-2.8
-8.39
-14.2
-20.07
-25.8
-31.27
-36.43
-41.32
-46.12
-51.09
-56.52
-62.6
-69.16
-75.52
-80.46
-82.38
-79.8
-71.84
-58.65
-41.43
-22.13
-2.91
14.43
28.74
39.53
46.82
50.85
51.98
50.64
47.36
42.8
37.63
32.52
27.96
24.34
21.84
20.54
20.41
21.3
22.98
25.08
27.19
28.82
29.56
29.12
27.41
24.53
20.81
16.6
12.21
7.77
3.22
-1.57
-6.71
-12.2
-17.89
-23.57
-29.03
-34.14
-38.87
-43.39
-48.01
-53.09
-58.88
-65.2
-71.3
-75.83
-77.17
-73.86
-65.18
-51.45
-34.01
-14.79
4.17
21.17
35.15
45.63
52.59
56.22
56.9
55.15
51.61
47.05
42.2
37.66
33.81
30.8
28.73
27.61
27.46
28.18
29.48
30.94
32.09
32.54
32.1
30.74
28.52
25.55
21.96
17.86
13.37
8.55
3.34
-2.34
-8.53
-15.12
-21.79
-28.21
-34.11
-39.51
-44.63
-49.87
-55.62
-62.16
-69.48
-77.14
-84.14
-88.95
-89.83
-85.3
-74.75
-58.74
-38.95
-17.7
2.65
20.27
34.14
44
50.14
53.09
53.52
52.06
49.34
45.92
42.26
38.76
35.7
33.22
31.4
30.29
29.92
30.31
31.41
33
34.68
35.93
36.26
35.29
32.94
29.38
24.95
20.03
14.91
9.74
4.5
-0.88
-6.49
-12.35
-18.43
-24.58
-30.69
-36.73
-42.81
-49.17
-56.08
-63.72
-71.96
-80.2
-87.3
-91.72
-91.84
-86.43
-75.08
-58.47
-38.23
-16.5
4.49
22.97
37.9
48.87
56.04
59.85
60.89
59.82
57.29
53.87
50.01
46.09
42.4
39.21
36.75
35.18
34.52
34.67
35.41
36.45
37.51
38.25
38.3
37.36
35.25
31.96
27.75
22.96
17.95
12.9
7.84
2.65
-2.85
-8.76
-15.01
-21.41
-27.67
-33.49
-38.78
-43.66
-48.56
-54.05
-60.53
-67.93
-75.48
-81.74
-84.9
-83.36
-76.22
-63.59
-46.59
-27.02
-6.94
11.83
27.98
40.74
49.84
55.39
57.75
57.47
55.21
51.69
47.57
43.42
39.64
36.51
34.26
32.96
32.64
33.17
34.34
35.84
37.3
38.35
38.7
38.12
36.49
33.76
30.04
25.54
20.63
15.64
10.86
6.32
1.83
-2.95
-8.31
-14.25
-20.52
-26.63
-32.1
-36.76
-40.76
-44.66
-49.12
-54.7
-61.56
-69.21
-76.54
-81.96
-83.71
-80.41
-71.47
-57.37
-39.53
-19.99
-0.84
16.18
29.98
40.11
46.59
49.77
50.18
48.45
45.28
41.39
37.36
33.69
30.64
28.35
26.9
26.34
26.68
27.85
29.74
32.01
34.25
35.98
36.72
36.12
34.04
30.57
26.07
21.04
16.02
11.38
7.23
3.37
-0.56
-4.97
-10.06
-15.8
-21.87
-27.88
-33.42
-38.3
-42.53
-46.38
-50.37
-55.03
-60.73
-67.38
-74.16
-79.56
-81.69
-78.91
-70.35
-56.38
-38.47
-18.8
0.45
17.57
31.58
42.15
49.34
53.42
54.68
53.54
50.53
46.31
41.59
37.06
33.24
30.44
28.74
28.02
28.11
28.81
29.98
31.51
33.23
34.84
35.94
36.07
34.87
32.2
28.25
23.46
18.36
13.43
8.9
4.75
0.72
-3.54
-8.31
-13.62
-19.31
-24.99
-30.29
-34.95
-39
-42.73
-46.66
-51.36
-57.2
-64.21
-71.8
-78.73
-83.36
-83.93
-79.16
-68.66
-53.14
-34.27
-14.22
4.94
21.65
35.02
44.83
51.29
54.81
55.89
55.03
52.67
49.27
45.25
41.07
37.18
34.03
31.94
31.01
31.12
31.96
33.15
34.34
35.29
35.83
35.79
35.03
33.39
30.78
27.21
22.86
18.03
13.05
8.21
3.64
-0.71
-5.06
-9.7
-14.82
-20.42
-26.23
-31.85
-36.85
-41.02
-44.38
-47.28
-50.17
-53.57
-57.82
-63.04
-68.99
-74.88
-79.5
-81.32
-78.9
-71.35
-58.68
-41.88
-22.72
-3.26
14.61
29.57
40.91
48.54
52.77
54.14
53.34
51.02
47.8
44.15
40.46
37.03
34.13
31.94
30.54
29.87
29.8
30.16
30.86
31.79
32.8
33.62
33.85
33.12
31.17
28
23.86
19.17
14.36
9.7
5.36
1.26
-2.73
-6.85
-11.28
-16.17
-21.46
-26.93
-32.23
-37.01
-41.08
-44.49
-47.51
-50.62
-54.28
-58.85
-64.31
-70.18
-75.38
-78.43
-77.81
-72.37
-61.86
-47.03
-29.52
-11.34
5.62
20.07
31.39
39.49
44.59
46.98
46.99
45.06
41.75
37.74
33.65
29.99
26.95
24.54
22.66
21.28
20.43
20.25
20.8
21.94
23.36
24.56
25.09
24.63
23.06
20.45
17.01
13.03
8.85
4.72
0.77
-3.02
-6.85
-10.96
-15.49
-20.39
-25.4
-30.16
-34.35
-37.9
-40.97
-43.99
-47.49
-51.88
-57.27
-63.22
-68.68
-72.14
-72.05
-67.24
-57.46
-43.46
-26.84
-9.56
6.57
20.3
31.06
38.8
43.74
46.15
46.28
44.42
40.98
36.56
31.83
27.44
23.81
21.14
19.43
18.59
18.58
19.39
21
23.26
25.76
27.93
29.13
28.89
27.08
23.97
20.06
15.91
11.86
7.98
4.09
-0.06
-4.69
-9.81
-15.29
-20.87
-26.31
-31.43
-36.25
-40.95
-45.83
-51.24
-57.37
-64.09
-70.77
-76.26
-79.11
-77.9
-71.76
-60.61
-45.39
-27.72
-9.53
7.43
21.95
33.4
41.67
46.89
49.34
49.36
47.4
44.05
39.99
35.87
32.24
29.39
27.42
26.22
25.66
25.65
26.16
27.19
28.58
30.04
31.07
31.17
29.99
27.51
24.02
19.99
15.85
11.85
7.9
3.71
-1.02
-6.49
-12.6
-19.04
-25.33
-31.07
-36.05
-40.33
-44.23
-48.22
-52.75
-58.21
-64.65
-71.73
-78.53
-83.65
-85.45
-82.51
-74.1
-60.49
-42.94
-23.32
-3.74
14.09
28.97
40.4
48.33
53.06
55.04
54.74
52.72
49.49
45.55
41.39
37.48
34.18
31.76
30.33
29.8
29.96
30.57
31.4
32.28
33.05
33.53
33.45
32.51
30.49
27.38
23.44
19.14
14.96
11.18
7.7
4.13
-0.03
-5.12
-11.12
-17.68
-24.21
-30.23
-35.54
-40.28
-44.86
-49.73
-55.23
-61.47
-68.24
-74.91
-80.41
-83.33
-82.23
-76.08
-64.68
-48.84
-30.17
-10.68
7.8
23.91
36.86
46.35
52.42
55.32
55.56
53.8
50.82
47.3
43.77
40.49
37.6
35.17
33.32
32.16
31.82
32.3
33.47
35.09
36.84
38.36
39.29
39.33
38.26
35.98
32.53
28.13
23.13
17.95
12.91
8.19
3.65
-0.98
-6.03
-11.66
-17.72
-23.78
-29.36
-34.12
-38.06
-41.52
-45
-49
-53.83
-59.53
-65.84
-72.12
-77.29
-79.97
-78.69
-72.39
-60.84
-44.82
-26.02
-6.58
11.5
26.75
38.42
46.36
50.85
52.32
51.34
48.56
44.69
40.45
36.46
33.12
30.64
29.03
28.2
28.06
28.56
29.59
31.03
32.65
34.19
35.34
35.82
35.42
33.95
31.34
27.68
23.24
18.45
13.76
9.46
5.55
1.76
-2.27
-6.82
-11.99
-17.59
-23.33
-28.84
-33.85
-38.2
-41.91
-45.19
-48.42
-52.12
-56.75
-62.5
-69.08
-75.55
-80.42
-81.97
-78.71
-69.92
-55.87
-37.95
-18.2
1.15
18.21
31.8
41.49
47.45
50.21
50.37
48.55
45.35
41.34
37.14
33.32
30.31
28.26
27.07
26.47
26.21
26.19
26.48
27.26
28.57
30.22
31.71
32.44
31.9
29.88
26.53
22.3
17.68
13.04
8.5
3.94
-0.87
-6.08
-11.68
-17.49
-23.23
-28.67
-33.69
-38.25
-42.41
-46.34
-50.39
-55.01
-60.69
-67.65
-75.51
-83.09
-88.56
-89.94
-85.72
-75.44
-59.88
-40.8
-20.36
-0.61
16.96
31.47
42.53
50.07
54.28
55.53
54.39
51.53
47.63
43.29
38.99
35.13
32.04
29.99
29.13
29.44
30.72
32.61
34.71
36.65
38.05
38.61
38.05
36.22
33.17
29.14
24.53
19.74
15.01
10.29
5.33
-0.14
-6.24
-12.81
-19.52
-25.93
-31.78
-37.09
-42.07
-47.1
-52.56
-58.76
-65.79
-73.37
-80.73
-86.58
-89.31
-87.44
-80
-67.04
-49.58
-29.5
-8.98
10.02
26.07
38.47
47.13
52.41
54.8
54.93
53.35
50.66
47.41
44.08
41.07
38.62
36.83
35.71
35.26
35.45
36.26
37.56
39.1
40.44
41.05
40.46
38.37
34.8
30.11
24.85
19.61
14.74
10.21
5.71
0.78
-4.9
-11.35
-18.3
-25.23
-31.67
-37.33
-42.19
-46.51
-50.75
-55.47
-61.07
-67.68
-74.83
-81.44
-85.96
-86.7
-82.39
-72.5
-57.49
-38.68
-17.94
2.73
21.55
37.19
48.94
56.62
60.55
61.31
59.66
56.33
51.99
47.26
42.69
38.77
35.88
34.23
33.77
34.3
35.51
37.13
38.97
40.81
42.38
43.25
42.94
41.07
37.56
32.7
27.12
21.5
16.35
11.79
7.51
3.01
-2.17
-8.19
-14.83
-21.59
-27.87
-33.24
-37.63
-41.32
-44.94
-49.15
-54.4
-60.66
-67.3
-73.15
-76.72
-76.6
-71.85
-62.2
-48.18
-31.01
-12.3
6.2
22.96
36.85
47.2
53.82
56.88
56.84
54.39
50.35
45.57
40.8
36.55
33.09
30.45
28.53
27.31
26.8
27.11
28.24
29.99
31.99
33.73
34.67
34.47
32.98
30.27
26.57
22.23
17.64
13.15
8.97
5.12
1.36
-2.66
-7.25
-12.48
-18.15
-23.81
-28.98
-33.39
-37.1
-40.5
-44.18
-48.67
-54.17
-60.34
-66.25
-70.52
-71.61
-68.28
-60.02
-47.2
-31.04
-13.27
4.29
20.05
32.9
42.27
48.02
50.41
49.93
47.23
42.99
37.94
32.72
27.87
23.83
20.88
19.15
18.6
19.08
20.36
22.12
23.99
25.57
26.48
26.45
25.35
23.3
20.51
17.25
13.77
10.16
6.4
2.36
-2.14
-7.16
-12.63
-18.28
-23.75
-28.76
-33.16
-37.02
-40.6
-44.33
-48.57
-53.54
-59.07
-64.48
-68.63
-70.05
-67.46
-60.19
-48.51
-33.62
-17.27
-1.29
12.91
24.48
33.13
38.9
41.97
42.64
41.31
38.51
34.86
30.92
27.15
23.83
21.13
19.11
17.84
17.37
17.66
18.59
19.87
21.13
21.99
22.15
21.45
19.86
17.45
14.39
10.84
6.89
2.64
-1.85
-6.53
-11.34
-16.2
-21.06
-25.8
-30.39
-34.78
-39.06
-43.45
-48.21
-53.49
-59.12
-64.46
-68.37
-69.51
-66.7
-59.38
-47.82
-33.07
-16.69
-0.29
14.73
27.45
37.31
44.12
47.94
49.03
47.84
44.99
41.17
37.01
33.02
29.51
26.66
24.56
23.3
22.93
23.36
24.37
25.54
26.38
26.47
25.6
23.84
21.44
18.7
15.87
12.98
9.94
6.52
2.56
-2.03
-7.21
-12.84
-18.72
-24.66
-30.5
-36.12
-41.46
-46.55
-51.53
-56.61
-61.86
-66.98
-71.23
-73.42
-72.33
-67.08
-57.51
-44.28
-28.62
-12.09
3.88
18.19
30.11
39.21
45.3
48.38
48.74
46.88
43.56
39.53
35.45
31.76
28.68
26.25
24.51
23.48
23.23
23.73
24.84
26.27
27.6
28.47
28.55
27.7
25.88
23.14
19.64
15.55
11.1
6.47
1.79
-2.88
-7.54
-12.22
-16.98
-21.83
-26.84
-32.05
-37.51
-43.22
-49.12
-55.12
-61.06
-66.61
-71.23
-74.15
-74.38
-71.06
-63.68
-52.34
-37.79
-21.31
-4.46
11.26
24.64
34.86
41.62
45.02
45.58
44.06
41.28
38
34.81
32.07
29.99
28.61
27.85
27.55
27.52
27.67
27.89
28.12
28.22
27.97
27.11
25.47
23.02
19.86
16.17
12.03
7.52
2.62
-2.63
-8.1
-13.6
-18.93
-23.92
-28.43
-32.42
-35.9
-39
-41.96
-45.18
-49.05
-53.78
-59.17
-64.48
-68.48
-69.77
-67.17
-60.1
-48.86
-34.48
-18.5
-2.53
12.12
24.5
34.13
40.88
44.85
46.36
45.86
43.85
40.8
37.15
33.25
29.53
26.35
24.11
23.03
23.14
24.18
25.7
27.18
28.18
28.45
27.89
26.56
24.6
22.1
19.09
15.55
11.43
6.72
1.49
-4.11
-9.92
-15.73
-21.36
-26.65
-31.49
-35.86
-39.85
-43.69
-47.71
-52.27
-57.57
-63.52
-69.5
-74.45
-76.98
-75.72
-69.81
-59.14
-44.49
-27.34
-9.49
7.35
21.84
33.21
41.22
46.03
48.04
47.86
46.06
43.28
40.06
36.84
33.98
31.67
29.99
28.95
28.53
28.73
29.47
30.61
31.84
32.78
33.02
32.27
30.43
27.61
24.04
20
15.69
11.26
6.73
2.03
-2.91
-8.14
-13.59
-19.13
-24.57
-29.78
-34.79
-39.77
-44.99
-50.71
-56.98
-63.53
-69.67
-74.35
-76.35
-74.58
-68.39
-57.74
-43.35
-26.47
-8.69
8.39
23.47
35.69
44.67
50.5
53.55
54.37
53.53
51.54
48.89
45.96
43.11
40.61
38.62
37.2
36.32
35.89
35.79
35.88
35.98
35.86
35.21
33.8
31.48
28.26
24.34
20.03
15.56
11.06
6.41
1.37
-4.28
-10.55
-17.15
-23.65
-29.68
-35.07
-40.06
-45.1
-50.76
-57.29
-64.49
-71.55
-77.18
-79.9
-78.37
-71.82
-60.27
-44.59
-26.26
-7.1
11.16
27.13
39.9
49.09
54.7
57.09
56.83
54.59
51.06
46.84
42.46
38.29
34.67
31.83
29.93
29.04
29.07
29.87
31.1
32.37
33.28
33.43
32.52
30.41
27.1
22.77
17.74
12.36
6.9
1.53
-3.76
-8.99
-14.2
-19.32
-24.26
-28.92
-33.35
-37.78
-42.53
-47.92
-54.07
-60.77
-67.39
-72.88
-75.94
-75.29
-69.97
-59.71
-45.07
-27.4
-8.58
9.43
25.05
37.33
45.94
51.08
53.16
52.68
50.11
45.98
40.92
35.61
30.75
26.88
24.3
23.05
22.91
23.52
24.4
25.06
25.08
24.17
22.27
19.53
16.2
12.55
8.77
4.88
0.79
-3.64
-8.48
-13.69
-19.11
-24.5
-29.68
-34.53
-39.1
-43.58
-48.3
-53.57
-59.53
-65.94
-72.03
-76.54
-77.99
-75.05
-67.05
-54.2
-37.61
-19
-0.31
16.76
31.01
41.79
48.98
52.83
53.84
52.57
49.58
45.46
40.77
36.1
32
28.86
26.82
25.8
25.55
25.79
26.28
26.85
27.3
27.43
26.96
25.65
23.38
20.16
16.11
11.45
6.41
1.16
-4.19
-9.59
-15.08
-20.7
-26.46
-32.29
-38.14
-43.97
-49.92
-56.13
-62.66
-69.18
-74.85
-78.36
-78.3
-73.52
-63.64
-49.21
-31.6
-12.65
5.75
22.05
35.24
44.9
51.09
54.17
54.75
53.43
50.8
47.35
43.49
39.56
35.88
32.77
30.47
29.14
28.75
29.09
29.8
30.49
30.83
30.57
29.59
27.85
25.31
21.95
17.82
13.02
7.74
2.24
-3.31
-8.81
-14.28
-19.78
-25.35
-30.98
-36.71
-42.65
-49.01
-55.91
-63.27
-70.54
-76.66
-80.25
-79.93
-74.73
-64.42
-49.61
-31.68
-12.41
6.31
22.93
36.43
46.34
52.72
55.94
56.56
55.12
52.19
48.29
43.93
39.61
35.76
32.71
30.63
29.52
29.3
29.75
30.59
31.49
32.07
32.04
31.16
29.36
26.69
23.27
19.23
14.69
9.74
4.47
-1.06
-6.76
-12.56
-18.44
-24.36
-30.28
-36.2
-42.14
-48.23
-54.58
-61.23
-67.81
-73.54
-77.2
-77.47
-73.29
-64.3
-50.96
-34.52
-16.66
0.9
16.73
29.84
39.77
46.4
49.91
50.63
49.03
45.67
41.17
36.22
31.47
27.48
24.61
23
22.47
22.72
23.32
23.92
24.32
24.42
24.22
23.65
22.6
20.88
18.29
14.76
10.35
5.26
-0.2
-5.79
-11.28
-16.61
-21.8
-26.96
-32.28
-37.93
-44.05
-50.66
-57.57
-64.27
-69.83
-73.06
-72.72
-67.89
-58.37
-44.73
-28.26
-10.72
6.15
20.89
32.6
40.93
45.97
48.11
47.82
45.53
41.67
36.7
31.24
25.99
21.69
18.84
17.57
17.64
18.52
19.69
20.71
21.35
21.46
20.93
19.67
17.59
14.69
11.1
7.03
2.69
-1.73
-6.15
-10.58
-15.13
-19.95
-25.13
-30.68
-36.61
-42.89
-49.47
-56.2
-62.58
-67.73
-70.46
-69.5
-64.02
-53.95
-40.07
-23.85
-6.99
8.96
22.9
34.18
42.55
47.94
50.47
50.4
48.18
44.42
39.83
35.1
30.78
27.22
24.59
22.86
21.98
21.77
22.09
22.7
23.31
23.56
23.09
21.68
19.31
16.12
12.4
8.39
4.21
-0.17
-4.85
-9.92
-15.37
-21.09
-26.94
-32.82
-38.74
-44.82
-51.21
-58.08
-65.35
-72.62
-79
-83.23
-83.96
-80.04
-71.04
-57.41
-40.41
-21.89
-3.77
12.33
25.35
34.88
40.99
44.07
44.54
42.86
39.49
34.95
29.86
24.8
20.22
16.36
13.28
11
9.61
9.24
9.99
11.72
13.97
16.1
17.39
17.33
15.67
12.47
7.96
2.48
-3.65
-10.13
-16.81
-23.63
-30.6
-37.68
-44.67
-51.24
-57.06
-62.04
-66.46
-70.78
-75.26
-79.65
-82.95
-83.72
-80.53
-72.49
-59.44
-41.85
-20.5
3.69
29.65
55.97
80.83
102.21
118.33
128.13
131.54
129.43
123.31
114.86
105.75
97.47
91.2
87.79
87.54
90.12
94.55
99.45
103.37
105.2
104.4
100.97
95.25
87.64
78.4
67.66
55.61
42.65
29.36
16.36
4.14
-7.17
-17.66
-27.57
-37.01
-45.93
-54.11
-61.39
-67.72
-73.25
-78.24
-82.95
-87.55
-92.12
-96.72
-101.41
-106.13
-110.54
-113.88
-114.95
-112.38
-105.03
-92.54
-75.53
-55.51
-34.51
-14.47
3.16
17.59
28.63
36.38
41.05
42.9
42.29
39.73
35.9
31.59
27.52
24.18
21.81
20.41
19.89
20.1
20.9
22.15
23.67
25.18
26.36
26.88
26.49
25.08
22.7
19.56
15.94
12.11
8.26
4.42
0.46
-3.8
-8.57
-13.85
-19.46
-25.04
-30.22
-34.78
-38.78
-42.6
-46.84
-52.03
-58.4
-65.58
-72.58
-77.91
-79.95
-77.36
-69.52
-56.68
-39.98
-21.14
-2.07
15.5
30.36
41.86
49.88
54.63
56.51
56
53.61
49.92
45.53
41.05
36.97
33.6
30.99
29.02
27.52
26.33
25.41
24.83
24.63
24.72
24.86
24.68
23.82
22.05
19.36
16
12.32
8.66
5.19
1.82
-1.83
-6.18
-11.52
-17.81
-24.58
-31.16
-36.95
-41.74
-45.84
-49.94
-54.86
-61.12
-68.74
-77.01
-84.67
-89.99
-91.18
-86.72
-75.87
-58.97
-37.51
-13.83
9.39
29.86
46.08
57.52
64.44
67.54
67.6
65.32
61.24
55.9
49.87
43.79
38.31
33.9
30.87
29.26
28.98
29.75
31.28
33.19
35.16
36.84
37.9
38.06
37.05
34.72
31.07
26.32
20.89
15.3
9.98
5.07
0.37
-4.5
-9.94
-16.08
-22.76
-29.54
-35.93
-41.56
-46.33
-50.4
-54.18
-58.2
-62.97
-68.73
-75.26
-81.66
-86.42
-87.7
-83.9
-74.15
-58.76
-39.2
-17.77
3.09
21.37
35.87
46.28
52.9
56.34
57.25
56.19
53.64
49.98
45.59
40.81
35.95
31.29
27.19
24
22.04
21.46
22.2
23.98
26.34
28.8
30.93
32.36
32.81
32.11
30.2
27.18
23.27
18.8
14.07
9.26
4.4
-0.6
-5.9
-11.53
-17.4
-23.26
-28.82
-33.84
-38.24
-42.21
-46.16
-50.63
-56.08
-62.66
-69.89
-76.63
-81.21
-81.78
-76.96
-66.28
-50.41
-31.05
-10.43
9.27
26.36
39.87
49.47
55.31
57.8
57.45
54.84
50.58
45.34
39.75
34.41
29.78
26.12
23.52
21.93
21.18
21.15
21.69
22.69
23.99
25.36
26.45
26.87
26.32
24.64
21.95
18.55
14.83
11.12
7.55
4.07
0.39
-3.81
-8.75
-14.48
-20.78
-27.22
-33.32
-38.71
-43.29
-47.26
-51.13
-55.53
-60.94
-67.44
-74.52
-80.99
-85.19
-85.38
-80.18
-69.07
-52.57
-32.27
-10.41
10.63
28.87
43.07
52.84
58.48
60.72
60.38
58.22
54.8
50.53
45.78
40.9
36.25
32.2
29.06
27
26.09
26.26
27.37
29.13
31.15
32.91
33.82
33.38
31.34
27.8
23.23
18.26
13.54
9.41
5.87
2.53
-1.19
-5.78
-11.49
-18.14
-25.26
-32.22
-38.5
-43.9
-48.62
-53.21
-58.31
-64.43
-71.59
-79.19
-86
-90.38
-90.69
-85.69
-74.98
-59.11
-39.51
-18.19
2.71
21.35
36.51
47.66
54.88
58.59
59.28
57.43
53.48
47.99
41.74
35.61
30.4
26.67
24.51
23.73
23.95
24.85
26.22
27.93
29.83
31.58
32.75
32.86
31.63
29.02
25.33
21.04
16.71
12.7
9.05
5.48
1.49
-3.39
-9.39
-16.35
-23.74
-30.92
-37.38
-42.89
-47.63
-52.11
-56.98
-62.72
-69.42
-76.56
-82.95
-86.9
-86.63
-80.78
-68.88
-51.67
-30.94
-9.11
11.45
28.92
42.37
51.67
57.26
59.72
59.66
57.56
53.83
48.97
43.54
38.12
33.22
29.12
25.89
23.49
21.93
21.25
21.54
22.71
24.4
25.96
26.65
25.89
23.46
19.55
14.66
9.4
4.25
-0.54
-4.97
-9.24
-13.63
-18.35
-23.45
-28.84
-34.28
-39.53
-44.46
-49.15
-53.87
-58.96
-64.66
-70.82
-76.8
-81.4
-83.11
-80.48
-72.6
-59.45
-42.02
-22.05
-1.65
17.25
33.18
45.32
53.42
57.66
58.51
56.6
52.66
47.44
41.66
35.99
30.95
26.88
23.92
22.02
21.03
20.75
21.05
21.84
22.99
24.24
25.17
25.28
24.12
21.49
17.51
12.61
7.3
2.03
-3.04
-8
-13.06
-18.39
-23.96
-29.57
-34.94
-39.9
-44.57
-49.33
-54.67
-60.96
-68.19
-75.74
-82.41
-86.61
-86.71
-81.42
-70.27
-53.7
-33.15
-10.74
11.16
30.43
45.63
56.1
62
63.97
62.89
59.61
54.82
49.08
42.89
36.77
31.26
26.8
23.66
21.88
21.28
21.57
22.43
23.55
24.6
25.28
25.25
24.25
22.09
18.83
14.67
10.05
5.4
1.11
-2.69
-6.14
-9.63
-13.6
-18.43
-24.27
-31.06
-38.6
-46.6
-54.76
-62.65
-69.67
-74.89
-77.16
-75.28
-68.33
-56.06
-39.07
-18.85
2.47
22.61
39.63
52.31
60.37
64.23
64.83
63.14
60.01
56.06
51.73
47.39
43.37
39.99
37.39
35.55
34.28
33.28
32.3
31.21
30.08
29
27.99
26.82
25.03
22.06
17.48
11.27
3.88
-3.91
-11.22
-17.42
-22.27
-25.89
-28.6
-30.73
-32.53
-34.28
-36.42
-39.6
-44.45
-51.28
-59.65
-68.2
-74.84
-77.24
-73.62
-63.31
-47.02
-26.67
-4.79
16.19
34.48
49.15
60.03
67.43
71.74
73.27
72.26
68.96
63.86
57.62
51.04
44.91
39.83
36.1
33.71
32.24
31.05
29.45
26.94
23.4
19.09
14.46
9.89
5.47
0.95
-4.02
-9.67
-15.87
-22.23
-28.25
-33.7
-38.63
-43.43
-48.59
-54.56
-61.61
-69.72
-78.44
-86.82
-93.34
-96.16
-93.56
-84.48
-69.01
-48.41
-24.9
-1.04
20.8
38.84
52.01
59.86
62.44
60.23
54.03
45.02
34.59
24.22
15.25
8.73
5.26
4.92
7.35
11.86
17.63
23.9
30.07
35.7
40.41
43.75
45.17
44.19
40.53
34.28
25.97
16.38
6.36
-3.43
-12.65
-21.25
-29.43
-37.47
-45.72
-54.37
-63.31
-71.88
-78.8
-82.31
-80.64
-72.65
-58.31
-38.94
-16.85
5.32
25.28
41.56
53.58
61.39
65.32
65.78
63.24
58.32
51.88
44.96
38.51
33.21
29.28
26.57
24.68
23.3
22.34
21.88
22.12
23.04
24.3
25.25
25.12
23.23
19.29
13.44
6.19
-1.71
-9.58
-16.96
-23.77
-30.34
-37.29
-45.35
-55.05
-66.33
-78.28
-89.07
-96.3
-97.65
-91.58
-77.97
-58.17
-34.69
-10.43
12.02
30.92
45.44
55.42
61.09
62.79
60.94
56.09
49.06
40.9
32.72
25.45
19.62
15.27
12.09
9.69
7.89
6.82
6.8
8.11
10.68
13.95
16.98
18.79
18.69
16.5
12.57
7.54
2.03
-3.62
-9.37
-15.55
-22.64
-31.08
-41.07
-52.24
-63.52
-73.07
-78.68
-78.32
-70.93
-56.84
-37.88
-16.76
3.71
21.4
35.25
45.13
51.48
54.83
55.63
54.23
51.07
46.71
41.81
37.01
32.75
29.2
26.34
24.03
22.13
20.57
19.36
18.57
18.17
17.93
17.39
15.96
13.14
8.7
2.83
-3.91
-10.78
-17.18
-22.82
-27.88
-32.93
-38.68
-45.71
-54.15
-63.41
-72.18
-78.62
-80.85
-77.47
-67.93
-52.67
-33.06
-11.03
11.24
31.68
48.61
60.95
68.43
71.5
71.19
68.65
64.84
60.33
55.36
50.11
44.92
40.35
37.03
35.3
35.09
35.9
36.99
37.6
37.25
35.79
33.3
29.99
26.04
21.5
16.32
10.41
3.75
-3.52
-11.08
-18.54
-25.57
-31.98
-37.89
-43.6
-49.6
-56.41
-64.39
-73.48
-82.99
-91.49
-96.98
-97.31
-90.84
-76.99
-56.68
-32.09
-6.17
18.14
38.59
53.99
64.15
69.64
71.34
70.18
66.96
62.43
57.24
51.98
47.12
42.97
39.69
37.33
35.87
35.33
35.65
36.7
38.17
39.7
40.84
41.21
40.51
38.53
35.22
30.66
25.11
19.02
12.91
7.24
2.26
-2.1
-6.26
-10.74
-15.98
-22.11
-28.83
-35.56
-41.67
-46.75
-50.81
-54.26
-57.77
-62.06
-67.65
-74.68
-82.72
-90.73
-97.06
-99.75
-96.93
-87.46
-71.34
-49.84
-25.29
-0.49
22.02
40.4
53.82
62.31
66.4
66.82
64.33
59.66
53.6
47.05
40.9
35.92
32.47
30.53
29.76
29.71
30.01
30.5
31.17
32.03
32.95
33.61
33.54
32.29
29.6
25.48
20.35
14.83
9.53
4.78
0.56
-3.43
-7.67
-12.45
-17.86
-23.65
-29.42
-34.76
-39.38
-43.24
-46.59
-49.84
-53.53
-58.07
-63.59
-69.76
-75.76
-80.26
-81.66
-78.48
-69.81
-55.67
-37.09
-16.01
5.28
24.65
40.61
52.43
60.02
63.74
64.1
61.69
57.17
51.33
44.98
38.9
33.71
29.76
27.11
25.65
25.13
25.35
26.09
27.16
28.35
29.46
30.22
30.38
29.66
27.86
24.9
20.91
16.25
11.43
6.91
2.93
-0.58
-3.93
-7.54
-11.71
-16.47
-21.61
-26.79
-31.71
-36.2
-40.25
-44.02
-47.71
-51.62
-56.1
-61.42
-67.63
-74.3
-80.32
-84.08
-83.75
-77.99
-66.38
-49.78
-30.03
-9.5
9.63
25.82
38.29
46.92
51.98
53.9
53.16
50.35
46.1
41.1
35.96
31.17
27.03
23.73
21.35
19.88
19.31
19.55
20.48
21.93
23.7
25.5
26.97
27.7
27.25
25.35
21.94
17.34
12.13
6.98
2.41
-1.44
-4.81
-8.2
-12.14
-16.86
-22.26
-27.91
-33.31
-38.1
-42.13
-45.48
-48.34
-51.06
-54.01
-57.62
-62.2
-67.68
-73.44
-78.23
-80.37
-78.22
-70.68
-57.63
-40.07
-19.87
0.7
19.48
34.85
45.98
52.81
55.81
55.8
53.65
50.13
45.88
41.37
36.92
32.74
29.01
25.84
23.49
22.16
22.02
23.12
25.17
27.73
30.18
32
32.84
32.58
31.31
29.24
26.53
23.29
19.6
15.53
11.24
6.92
2.77
-1.1
-4.71
-8.18
-11.68
-15.36
-19.32
-23.6
-28.22
-33.05
-37.91
-42.51
-46.62
-50.18
-53.46
-56.97
-61.24
-66.46
-72.22
-77.42
-80.51
-79.86
-74.34
-63.57
-48.13
-29.51
-9.67
9.33
25.8
38.7
47.63
52.75
54.54
53.66
50.77
46.54
41.63
36.56
31.78
27.59
24.16
21.62
20.02
19.39
19.67
20.72
22.29
24.04
25.65
26.78
27.21
26.8
25.54
23.49
20.74
17.41
13.64
9.62
5.58
1.67
-2.06
-5.7
-9.43
-13.39
-17.62
-21.99
-26.27
-30.27
-33.87
-37.1
-40.05
-42.96
-46.08
-49.75
-54.18
-59.42
-65.08
-70.32
-73.92
-74.45
-70.75
-62.2
-49.07
-32.44
-14.1
3.99
20.09
33.02
42.25
47.83
50.18
49.88
47.55
43.8
39.18
34.15
29.08
24.32
20.16
16.91
14.83
14.06
14.55
16.06
18.18
20.48
22.55
24.01
24.61
24.13
22.48
19.72
16.07
11.86
7.43
3.07
-1.11
-5.17
-9.27
-13.64
-18.39
-23.46
-28.63
-33.56
-37.99
-41.88
-45.45
-49.15
-53.45
-58.62
-64.47
-70.27
-74.74
-76.39
-73.85
-66.4
-54.14
-38.14
-20.09
-1.89
14.73
28.56
38.98
45.86
49.44
50.17
48.62
45.43
41.22
36.6
32.06
27.97
24.56
21.95
20.2
19.39
19.61
20.89
23.08
25.83
28.56
30.57
31.28
30.34
27.8
24.02
19.5
14.7
9.89
5.11
0.2
-4.99
-10.56
-16.43
-22.42
-28.29
-33.9
-39.19
-44.24
-49.23
-54.4
-60
-66.21
-72.93
-79.57
-84.97
-87.51
-85.53
-77.89
-64.46
-46.33
-25.53
-4.51
14.57
30.27
42.04
49.99
54.59
56.39
55.85
53.45
49.68
45.12
40.31
35.74
31.73
28.54
26.35
25.34
25.61
27.08
29.46
32.21
34.72
36.36
36.66
35.4
32.62
28.58
23.68
18.41
13.13
7.94
2.69
-2.95
-9.24
-16.21
-23.55
-30.74
-37.26
-42.89
-47.87
-52.77
-58.33
-65.07
-72.97
-81.32
-88.67
-93.15
-92.89
-86.55
-73.73
-55.27
-33.03
-9.47
12.9
32.13
47.05
57.37
63.4
65.82
65.43
62.94
59.04
54.34
49.4
44.74
40.79
37.82
35.95
35.16
35.34
36.36
38.05
40.18
42.37
44.11
44.75
43.79
40.97
36.48
30.86
24.87
19.14
13.96
9.18
4.31
-1.18
-7.59
-14.84
-22.44
-29.78
-36.35
-42
-47.01
-51.96
-57.52
-64.18
-72.01
-80.44
-88.24
-93.57
-94.41
-89.04
-76.67
-57.81
-34.29
-8.81
15.71
36.85
53.16
64.25
70.53
72.78
71.89
68.62
63.64
57.64
51.37
45.6
40.98
37.89
36.35
36.11
36.78
38.03
39.64
41.45
43.26
44.71
45.28
44.4
41.73
37.27
31.48
25.12
18.99
13.56
8.91
4.65
0.2
-4.94
-10.92
-17.53
-24.29
-30.73
-36.56
-41.76
-46.58
-51.44
-56.79
-63.02
-70.19
-77.84
-84.84
-89.5
-89.9
-84.5
-72.69
-55.11
-33.56
-10.54
11.4
30.23
44.75
54.61
60.08
61.76
60.41
56.7
51.35
45.09
38.66
32.85
28.32
25.49
24.48
25.08
26.88
29.36
32.03
34.4
36.08
36.73
36.11
34.15
30.96
26.81
22.03
16.9
11.57
6.09
0.43
-5.42
-11.42
-17.41
-23.16
-28.47
-33.2
-37.44
-41.49
-45.79
-50.83
-56.86
-63.72
-70.62
-76.2
-78.66
-76.32
-68.03
-53.75
-34.62
-12.81
9.03
28.53
44.04
54.9
61.26
63.79
63.27
60.47
56.1
50.86
45.45
40.54
36.62
33.92
32.4
31.81
31.87
32.33
33.1
34.16
35.46
36.77
37.67
37.62
36.15
33.01
28.37
22.7
16.66
10.84
5.56
0.77
-3.82
-8.63
-13.89
-19.56
-25.3
-30.66
-35.29
-39.14
-42.49
-45.87
-49.83
-54.8
-60.89
-67.76
-74.55
-79.94
-82.29
-80.03
-72.15
-58.64
-40.67
-20.35
-0.18
17.68
31.89
42.11
48.7
52.35
53.7
53.17
51.06
47.7
43.56
39.25
35.37
32.34
30.35
29.41
29.37
30.05
31.25
32.75
34.31
35.6
36.27
36.01
34.56
31.8
27.82
22.91
17.55
12.2
7.29
2.97
-0.83
-4.41
-8.15
-12.34
-17.07
-22.2
-27.38
-32.18
-36.26
-39.53
-42.15
-44.54
-47.24
-50.71
-55.3
-60.99
-67.33
-73.27
-77.31
-77.75
-73.23
-63.18
-48.16
-29.8
-10.38
7.83
23.11
34.56
42.13
46.29
47.78
47.32
45.58
43.09
40.28
37.46
34.88
32.67
30.97
29.91
29.61
30.06
31.12
32.5
33.8
34.69
34.95
34.48
33.22
31.13
28.17
24.41
20.02
15.28
10.57
6.15
2.19
-1.33
-4.58
-7.81
-11.25
-15.06
-19.28
-23.73
-28.14
-32.17
-35.56
-38.25
-40.42
-42.52
-45.1
-48.66
-53.45
-59.19
-65.05
-69.65
-71.35
-68.77
-61.19
-48.9
-33.19
-16
0.63
15.01
26.21
34.02
38.71
40.79
40.74
38.96
35.83
31.85
27.61
23.73
20.71
18.8
18.02
18.16
18.95
20.12
21.48
22.9
24.26
25.44
26.22
26.3
25.43
23.46
20.45
16.71
12.64
8.61
4.84
1.27
-2.35
-6.29
-10.72
-15.65
-20.85
-26.04
-30.87
-35.11
-38.66
-41.64
-44.31
-47.05
-50.29
-54.27
-58.95
-63.77
-67.66
-69.2
-66.99
-60.14
-48.69
-33.69
-16.97
-0.56
13.83
25.18
33.25
38.26
40.69
40.98
39.52
36.73
33.1
29.21
25.64
22.79
20.86
19.86
19.64
20.08
21.02
22.28
23.66
24.87
25.64
25.71
24.88
23.08
20.38
16.94
13.05
9.01
5.08
1.31
-2.45
-6.49
-11.07
-16.22
-21.7
-27.04
-31.78
-35.73
-39.05
-42.23
-45.86
-50.39
-55.87
-61.85
-67.38
-71.16
-71.93
-68.69
-61.02
-49.25
-34.42
-18.07
-1.94
12.47
24.17
32.75
38.3
41.23
42.03
41.21
39.25
36.6
33.71
30.95
28.55
26.63
25.18
24.18
23.67
23.72
24.34
25.4
26.66
27.74
28.26
27.91
26.53
24.12
20.81
16.87
12.6
8.27
4
-0.29
-4.78
-9.72
-15.12
-20.81
-26.4
-31.45
-35.74
-39.36
-42.75
-46.54
-51.24
-57.06
-63.65
-70.06
-74.87
-76.51
-73.67
-65.76
-53.11
-37
-19.27
-1.88
13.6
26.2
35.59
41.89
45.43
46.65
46
44.01
41.25
38.29
35.59
33.44
31.95
31.06
30.62
30.55
30.79
31.33
32.13
33.09
34
34.55
34.36
33.06
30.47
26.66
21.98
17
12.28
8.2
4.7
1.44
-2.08
-6.21
-10.97
-16.06
-21.01
-25.43
-29.22
-32.55
-35.79
-39.36
-43.62
-48.69
-54.41
-60.15
-64.82
-67
-65.31
-58.9
-47.86
-33.31
-17.21
-1.76
11.15
20.37
25.6
27.32
26.43
23.97
20.87
17.76
15.01
12.68
10.75
9.19
8.1
7.72
8.3
9.97
12.66
16.09
19.78
23.22
25.95
27.61
28.02
27.18
25.25
22.44
18.97
14.96
10.42
5.35
-0.17
-5.86
-11.42
-16.56
-21.23
-25.57
-29.89
-34.56
-39.83
-45.88
-52.65
-59.75
-66.33
-71.04
-72.29
-68.68
-59.5
-45.12
-26.98
-7.23
11.83
28.29
41.04
49.76
54.77
56.72
56.34
54.32
51.19
47.41
43.38
39.49
36.08
33.43
31.77
31.2
31.72
33.16
35.18
37.35
39.13
40.06
39.73
37.96
34.73
30.29
25.05
19.49
14.05
8.95
4.09
-0.79
-5.95
-11.49
-17.24
-22.84
-27.96
-32.5
-36.61
-40.67
-45.12
-50.21
-55.94
-61.77
-66.76
-69.55
-68.7
-63.11
-52.43
-37.32
-19.41
-0.88
16.04
29.75
39.48
45.35
47.99
48.25
46.85
44.31
41.03
37.39
33.78
30.6
28.11
26.45
25.6
25.5
26.05
27.13
28.6
30.2
31.6
32.43
32.34
31.05
28.44
24.56
19.75
14.55
9.52
5.12
1.47
-1.66
-4.72
-8.16
-12.21
-16.84
-21.75
-26.58
-31.05
-35.04
-38.7
-42.34
-46.38
-51.17
-56.79
-62.86
-68.41
-72
-72.05
-67.25
-57.14
-42.3
-24.28
-5.24
12.65
27.74
39.18
46.82
51.01
52.34
51.41
48.83
45.16
41.01
36.94
33.44
30.83
29.26
28.71
29.02
29.93
31.15
32.47
33.71
34.75
35.47
35.69
35.15
33.61
30.93
27.19
22.75
18.12
13.77
9.98
6.7
3.63
0.32
-3.55
-8.1
-13.09
-18.13
-22.81
-26.86
-30.31
-33.43
-36.64
-40.36
-44.86
-50.1
-55.66
-60.71
-64.05
-64.37
-60.6
-52.25
-39.64
-23.93
-6.86
9.65
23.94
34.93
42.21
46.03
46.96
45.72
42.99
39.32
35.14
30.79
26.59
22.86
19.91
17.99
17.24
17.62
18.91
20.78
22.82
24.65
25.94
26.41
25.9
24.35
21.83
18.57
14.93
11.25
7.72
4.33
0.87
-2.93
-7.18
-11.82
-16.56
-21.09
-25.17
-28.71
-31.78
-34.62
-37.5
-40.73
-44.47
-48.69
-53.03
-56.73
-58.71
-57.77
-53.02
-44.2
-31.85
-17.29
-2.28
11.44
22.59
30.5
35.12
36.87
36.31
33.99
30.4
25.98
21.23
16.67
12.8
9.96
8.26
7.56
7.62
8.18
9.1
10.29
11.7
13.15
14.36
14.97
14.68
13.33
11
7.86
4.19
0.23
-3.88
-8.02
-12.16
-16.26
-20.26
-24.09
-27.74
-31.24
-34.74
-38.46
-42.56
-47.04
-51.61
-55.6
-58.12
-58.13
-54.75
-47.56
-36.78
-23.39
-8.87
5.09
17.09
26.25
32.37
35.79
37.05
36.73
35.28
32.98
30.07
26.85
23.66
20.86
18.79
17.69
17.6
18.37
19.69
21.2
22.59
23.59
24.04
23.82
22.82
20.95
18.27
14.86
10.93
6.66
2.17
-2.44
-7.08
-11.67
-16.21
-20.8
-25.73
-31.34
-37.84
-45.13
-52.67
-59.59
-64.86
-67.49
-66.77
-62.3
-54.08
-42.58
-28.71
-13.82
0.56
13.03
22.6
28.94
32.32
33.42
33
31.64
29.71
27.4
24.83
22.18
19.67
17.49
15.8
14.62
13.84
13.29
12.79
12.15
11.3
10.2
8.81
7.05
4.79
1.88
-1.73
-5.96
-10.56
-15.23
-19.67
-23.75
-27.5
-31.07
-34.7
-38.6
-42.98
-47.9
-53.29
-58.78
-63.68
-66.96
-67.42
-64.04
-56.32
-44.51
-29.67
-13.39
2.56
16.69
28.01
36.13
41.12
43.31
43.16
41.14
37.75
33.48
28.82
24.24
20.18
16.95
14.78
13.67
13.48
13.91
14.66
15.43
15.99
16.22
16
15.25
13.87
11.74
8.73
4.8
0.02
-5.36
-10.96
-16.43
-21.57
-26.34
-30.94
-35.66
-40.82
-46.65
-53.17
-60.05
-66.5
-71.27
-72.95
-70.26
-62.67
-50.54
-35.17
-18.39
-2.09
12.28
23.84
32.29
37.72
40.43
40.78
39.21
36.16
32.17
27.84
23.71
20.28
17.87
16.61
16.45
17.18
18.5
20.08
21.59
22.71
23.15
22.69
21.18
18.59
14.91
10.2
4.55
-1.88
-8.78
-15.79
-22.5
-28.62
-34.14
-39.32
-44.68
-50.73
-57.8
-65.7
-73.62
-80.19
-83.73
-82.69
-76.14
-64.11
-47.67
-28.66
-9.27
8.58
23.55
35.03
42.96
47.58
49.24
48.27
45.08
40.24
34.54
28.9
24.21
21.09
19.82
20.21
21.83
24.04
26.31
28.26
29.68
30.47
30.5
29.56
27.39
23.76
18.65
12.25
5.03
-2.46
-9.71
-16.41
-22.53
-28.38
-34.44
-41.23
-49.11
-58.03
-67.44
-76.23
-82.8
-85.35
-82.31
-72.84
-57.17
-36.73
-13.83
8.85
29.01
45.16
56.73
63.95
67.41
67.83
65.86
62.15
57.39
52.32
47.62
43.82
41.22
39.82
39.48
39.89
40.74
41.7
42.51
42.93
42.77
41.87
40.03
37.09
32.92
27.54
21.11
14
6.64
-0.5
-7.08
-13.02
-18.48
-23.87
-29.73
-36.58
-44.74
-54.1
-63.99
-73.07
-79.57
-81.62
-77.82
-67.76
-52.18
-32.9
-12.28
7.36
24.3
37.59
47.06
52.97
55.83
56.23
54.74
52.01
48.6
45.06
41.82
39.13
37.13
35.83
35.14
34.92
34.99
35.13
35.17
34.94
34.29
33.08
31.14
28.32
24.52
19.81
14.39
8.56
2.59
-3.37
-9.28
-15.15
-20.97
-26.65
-32.11
-37.46
-42.97
-49.05
-55.91
-63.34
-70.54
-76.14
-78.63
-76.62
-69.27
-56.46
-38.83
-17.81
4.56
25.94
44.12
57.55
65.64
68.8
68.2
65.26
61.18
56.74
52.36
48.24
44.63
41.84
40.17
39.75
40.4
41.71
43.1
44.04
44.2
43.48
41.96
39.79
37.01
33.58
29.29
24.05
17.86
10.93
3.62
-3.68
-10.64
-17.07
-23
-28.61
-34.25
-40.31
-47.11
-54.76
-63.06
-71.39
-78.65
-83.43
-84.25
-79.91
-69.9
-54.7
-35.76
-15.22
4.62
21.87
35.39
44.88
50.65
53.3
53.44
51.58
48.17
43.69
38.72
33.92
29.91
27.15
25.83
25.82
26.79
28.28
29.83
31.06
31.69
31.56
30.53
28.53
25.58
21.8
17.41
12.65
7.73
2.7
-2.52
-8.03
-13.88
-19.96
-26.06
-31.91
-37.34
-42.33
-47.09
-51.95
-57.25
-63.1
-69.12
-74.39
-77.46
-76.78
-71.15
-60.24
-44.84
-26.73
-8.22
8.54
22.09
31.86
38.08
41.44
42.69
42.52
41.54
40.27
39.23
38.81
39.16
40.08
41.11
41.76
41.71
40.95
39.71
38.31
36.9
35.41
33.6
31.2
28.11
24.45
20.52
16.64
12.94
9.32
5.46
1.03
-4.12
-9.87
-15.86
-21.63
-26.76
-30.98
-34.28
-36.9
-39.36
-42.26
-46.17
-51.23
-56.97
-62.28
-65.59
-65.44
-60.89
-51.88
-39.22
-24.29
-8.7
6.15
19.16
29.63
37.19
41.79
43.63
43.13
40.92
37.72
34.2
30.89
28.1
25.94
24.34
23.2
22.43
22.02
21.94
22.15
22.49
22.73
22.59
21.86
20.41
18.23
15.39
12.01
8.24
4.2
-0.05
-4.49
-9.13
-13.98
-18.96
-23.89
-28.54
-32.73
-36.41
-39.83
-43.39
-47.45
-52.14
-57.11
-61.53
-64.24
-64.03
-60.04
-52
-40.4
-26.38
-11.46
2.77
14.99
24.43
30.86
34.55
35.98
35.76
34.36
32.16
29.48
26.61
23.82
21.33
19.28
17.65
16.4
15.49
14.93
14.81
15.17
15.91
16.71
17.14
16.82
15.6
13.6
11.12
8.47
5.71
2.77
-0.56
-4.42
-8.77
-13.44
-18.23
-23.03
-27.8
-32.61
-37.53
-42.61
-47.82
-52.89
-57.32
-60.3
-60.83
-57.99
-51.22
-40.63
-27
-11.75
3.4
16.86
27.38
34.36
37.86
38.39
36.76
33.78
30.13
26.34
22.8
19.81
17.62
16.35
15.97
16.26
16.89
17.46
17.69
17.36
16.41
14.86
12.76
10.2
7.27
4.06
0.63
-2.93
-6.53
-10.04
-13.33
-16.26
-18.83
-21.08
-23.2
-25.49
-28.28
-31.85
-36.36
-41.68
-47.35
-52.51
-56.07
-56.85
-53.99
-47.18
-36.83
-23.94
-9.88
3.91
16.23
26.23
33.43
37.65
38.97
37.69
34.31
29.51
24.04
18.64
13.93
10.28
7.84
6.55
6.2
6.51
7.2
7.99
8.65
9.03
9.08
8.82
8.28
7.43
6.2
4.44
2.06
-0.96
-4.46
-8.24
-12.09
-15.92
-19.83
-24.06
-28.88
-34.41
-40.55
-46.85
-52.6
-56.9
-58.81
-57.55
-52.68
-44.19
-32.61
-18.97
-4.53
9.29
21.34
30.8
37.3
40.9
41.88
40.68
37.8
33.79
29.15
24.42
20.05
16.37
13.54
11.6
10.48
10.04
10.1
10.47
10.98
11.47
11.79
11.77
11.25
10.01
7.89
4.8
0.8
-3.89
-8.94
-14.01
-18.82
-23.31
-27.57
-31.92
-36.69
-42.11
-48.15
-54.36
-59.94
-63.85
-65.02
-62.65
-56.34
-46.24
-33.06
-17.99
-2.45
12.14
24.58
34.16
40.59
44.01
44.88
43.79
41.39
38.25
34.8
31.35
28.1
25.23
22.89
21.28
20.48
20.45
20.93
21.53
21.86
21.62
20.64
18.93
16.62
13.88
10.9
7.76
4.46
0.91
-3.01
-7.34
-11.99
-16.76
-21.45
-26
-30.51
-35.24
-40.47
-46.34
-52.73
-59.25
-65.17
-69.57
-71.37
-69.62
-63.67
-53.43
-39.48
-23.08
-5.82
10.62
24.84
35.93
43.6
48.02
49.66
49.12
46.94
43.61
39.57
35.25
31.08
27.46
24.63
22.73
21.74
21.54
21.97
22.82
23.84
24.72
25.14
24.86
23.72
21.74
19.03
15.72
11.86
7.5
2.66
-2.53
-7.91
-13.26
-18.42
-23.33
-28.05
-32.73
-37.62
-42.96
-48.95
-55.56
-62.38
-68.54
-72.75
-73.61
-69.96
-61.29
-48.05
-31.46
-13.37
4.3
19.97
32.63
41.94
48.07
51.41
52.42
51.46
48.9
45.16
40.7
36.08
31.8
28.26
25.68
24.14
23.61
23.95
24.94
26.26
27.57
28.45
28.53
27.54
25.34
22.05
17.99
13.63
9.36
5.38
1.54
-2.51
-7.15
-12.54
-18.51
-24.64
-30.49
-35.81
-40.69
-45.49
-50.68
-56.6
-63.13
-69.67
-75.04
-77.79
-76.52
-70.3
-59.04
-43.52
-25.24
-6.1
12.04
27.72
40.03
48.62
53.6
55.4
54.6
51.83
47.68
42.69
37.42
32.32
27.89
24.51
22.49
21.94
22.75
24.62
27.03
29.37
31.03
31.57
30.77
28.7
25.67
22.08
18.23
14.3
10.25
5.98
1.39
-3.59
-8.93
-14.56
-20.38
-26.25
-32.03
-37.64
-43.11
-48.6
-54.39
-60.55
-66.81
-72.33
-75.73
-75.55
-70.58
-60.39
-45.53
-27.44
-8.13
10.37
26.36
38.81
47.32
52.04
53.38
51.88
48.16
42.89
36.84
30.8
25.49
21.39
18.72
17.47
17.48
18.52
20.31
22.53
24.82
26.78
28.02
28.27
27.42
25.52
22.76
19.36
15.46
11.15
6.34
0.96
-4.93
-11.14
-17.29
-23.07
-28.3
-33.11
-37.82
-42.84
-48.51
-55
-62.18
-69.48
-75.83
-79.75
-79.57
-73.93
-62.39
-45.64
-25.45
-4.24
15.63
32.34
44.91
53.2
57.61
58.8
57.44
54.17
49.54
44.14
38.57
33.48
29.38
26.58
25.09
24.69
25.12
26.13
27.59
29.39
31.29
32.87
33.61
33.06
30.98
27.5
23.02
18.06
13.04
8.15
3.36
-1.57
-6.85
-12.59
-18.7
-24.9
-30.83
-36.28
-41.33
-46.31
-51.78
-58.21
-65.72
-73.82
-81.4
-86.86
-88.43
-84.69
-74.97
-59.67
-40.24
-18.82
2.32
21.24
36.7
48.2
55.76
59.7
60.5
58.7
54.95
49.94
44.38
38.89
34
30.12
27.5
26.26
26.37
27.58
29.57
31.93
34.27
36.19
37.24
36.99
35.18
31.81
27.29
22.29
17.43
13.05
9.03
4.89
0.06
-5.79
-12.55
-19.76
-26.78
-33.13
-38.63
-43.53
-48.39
-53.82
-60.29
-67.78
-75.63
-82.55
-86.8
-86.58
-80.56
-68.35
-50.78
-29.73
-7.69
12.89
30.17
43.21
51.96
56.91
58.71
58.02
55.36
51.3
46.5
41.66
37.43
34.21
32.07
30.88
30.41
30.53
31.22
32.5
34.34
36.46
38.34
39.34
38.91
36.78
33.07
28.26
22.96
17.7
12.73
7.97
3.1
-2.21
-8.11
-14.52
-21.15
-27.62
-33.66
-39.12
-44.07
-48.77
-53.59
-58.98
-65.21
-72.17
-79.08
-84.45
-86.42
-83.26
-74.03
-58.99
-39.59
-18.1
3.02
21.71
36.63
47.28
53.72
56.48
56.27
53.83
49.91
45.16
40.19
35.5
31.49
28.44
26.44
25.46
25.35
25.95
27.12
28.71
30.51
32.2
33.35
33.46
32.17
29.38
25.31
20.49
15.54
10.94
6.88
3.17
-0.63
-4.99
-10.17
-16.1
-22.43
-28.67
-34.42
-39.5
-44.02
-48.38
-53.09
-58.6
-65
-71.77
-77.7
-81.08
-80.13
-73.58
-61.2
-43.96
-23.94
-3.67
14.54
29.07
39.32
45.47
48.18
48.19
46.13
42.53
37.89
32.79
27.9
23.82
20.95
19.39
19.04
19.63
20.92
22.73
24.91
27.2
29.3
30.77
31.25
30.47
28.43
25.34
21.51
17.25
12.77
8.14
3.28
-1.89
-7.4
-13.16
-18.97
-24.58
-29.78
-34.57
-39.05
-43.56
-48.49
-54.15
-60.52
-67.09
-72.72
-75.84
-74.81
-68.45
-56.6
-40.22
-21.24
-1.98
15.51
29.86
40.53
47.57
51.37
52.39
51.11
48.05
43.81
39.09
34.52
30.6
27.57
25.49
24.23
23.65
23.65
24.18
25.24
26.75
28.49
30.1
31.14
31.16
29.89
27.29
23.61
19.24
14.65
10.18
5.96
1.92
-2.17
-6.52
-11.22
-16.21
-21.27
-26.16
-30.72
-34.96
-39.03
-43.27
-48.04
-53.63
-60.11
-67.08
-73.63
-78.27
-79.35
-75.49
-66.07
-51.61
-33.64
-14.41
3.85
19.39
31.31
39.52
44.44
46.68
46.8
45.25
42.41
38.72
34.73
30.99
27.99
26.03
25.16
25.24
26.08
27.43
29.1
30.91
32.68
34.18
35.18
35.42
34.7
32.96
30.23
26.75
22.8
18.67
14.58
10.6
6.68
2.64
-1.67
-6.37
-11.44
-16.78
-22.18
-27.42
-32.25
-36.51
-40.18
-43.47
-46.83
-50.82
-55.9
-62.14
-68.95
-75.04
-78.69
-78.17
-72.33
-61.05
-45.29
-26.86
-7.96
9.44
23.97
34.96
42.37
46.57
48.07
47.44
45.23
42.02
38.36
34.77
31.61
29.13
27.39
26.42
26.2
26.7
27.86
29.63
31.84
34.24
36.44
37.99
38.43
37.4
34.86
31.05
26.48
21.75
17.3
13.34
9.76
6.21
2.37
-2.01
-6.94
-12.22
-17.49
-22.38
-26.67
-30.36
-33.79
-37.46
-41.96
-47.73
-54.88
-63.09
-71.48
-78.71
-83.19
-83.43
-78.4
-67.96
-52.93
-34.95
-16.1
1.63
16.74
28.41
36.46
41.1
42.76
41.94
39.21
35.2
30.67
26.33
22.79
20.38
19.13
18.83
19.14
19.82
20.68
21.67
22.73
23.74
24.47
24.65
24.08
22.67
20.57
18.04
15.37
12.77
10.3
7.83
5.15
2.03
-1.68
-6
-10.79
-15.77
-20.6
-24.93
-28.57
-31.56
-34.18
-36.94
-40.4
-44.92
-50.51
-56.63
-62.19
-65.76
-65.86
-61.44
-52.2
-38.77
-22.6
-5.57
10.49
24.14
34.64
41.82
45.98
47.61
47.2
45.2
41.98
37.97
33.61
29.43
25.86
23.2
21.54
20.83
20.9
21.63
22.92
24.63
26.54
28.24
29.25
29.14
27.67
24.91
21.21
17.03
12.84
8.91
5.27
1.68
-2.13
-6.41
-11.21
-16.39
-21.6
-26.47
-30.72
-34.34
-37.52
-40.76
-44.62
-49.58
-55.73
-62.62
-69.18
-73.87
-75.04
-71.39
-62.46
-48.79
-31.85
-13.66
3.75
18.83
30.68
39.06
44.15
46.4
46.34
44.52
41.57
38.12
34.74
31.78
29.41
27.6
26.25
25.33
24.93
25.19
26.22
27.91
29.95
31.82
32.98
33.01
31.74
29.27
25.86
21.91
17.77
13.71
9.89
6.3
2.82
-0.81
-4.86
-9.51
-14.73
-20.28
-25.76
-30.8
-35.2
-39.08
-42.84
-47.05
-52.23
-58.56
-65.68
-72.55
-77.62
-79.21
-75.97
-67.34
-53.78
-36.69
-18.01
0.23
16.38
29.36
38.73
44.6
47.37
47.63
46.06
43.3
39.97
36.63
33.71
31.55
30.3
29.98
30.44
31.38
32.47
33.4
33.99
34.2
34.12
33.89
33.5
32.83
31.61
29.57
26.58
22.76
18.44
14.01
9.72
5.57
1.32
-3.35
-8.69
-14.67
-21.03
-27.31
-33.07
-38.05
-42.24
-45.94
-49.64
-53.9
-59.15
-65.66
-73.33
-81.59
-89.43
-95.42
-97.96
-95.73
-88.03
-75.1
-58.12
-38.89
-19.39
-1.3
14.23
26.65
35.89
42.11
45.62
46.76
45.96
43.68
40.51
37.04
33.81
31.22
29.54
28.88
29.22
30.47
32.42
34.77
37.18
39.24
40.6
41
40.33
38.64
36.14
33.13
29.94
26.8
23.82
20.95
18.07
15.02
11.65
7.87
3.57
-1.27
-6.61
-12.21
-17.68
-22.64
-26.83
-30.33
-33.48
-36.86
-40.97
-46.16
-52.47
-59.59
-66.94
-73.55
-78.18
-79.52
-76.46
-68.55
-56.2
-40.76
-24.1
-8
6.35
18.58
28.9
37.61
44.69
49.8
52.5
52.69
50.85
47.97
45.11
43.01
41.87
41.51
41.68
42.28
43.4
45.12
47.35
49.64
51.38
51.95
50.93
48.24
44.07
38.87
33.16
27.41
21.95
16.9
12.15
7.49
2.6
-2.72
-8.55
-14.8
-21.16
-27.23
-32.57
-36.87
-40.03
-42.26
-44.03
-45.99
-48.78
-52.85
-58.27
-64.57
-70.74
-75.3
-76.64
-73.38
-64.89
-51.53
-34.54
-15.82
2.67
19.25
32.84
42.95
49.56
52.91
53.39
51.5
47.77
42.85
37.4
32.05
27.31
23.48
20.67
18.84
17.93
17.86
18.54
19.82
21.35
22.63
23.16
22.53
20.62
17.59
13.81
9.67
5.45
1.29
-2.83
-6.95
-11.15
-15.54
-20.21
-25.21
-30.51
-35.89
-41.07
-45.81
-50.05
-54.1
-58.43
-63.46
-69.13
-74.71
-78.82
-79.82
-76.34
-67.78
-54.51
-37.76
-19.26
-0.8
16.07
30.29
41.26
48.88
53.41
55.35
55.32
53.89
51.49
48.39
44.79
40.88
36.94
33.27
30.19
27.96
26.69
26.31
26.57
27.06
27.29
26.81
25.32
22.71
19.15
14.93
10.42
5.92
1.63
-2.41
-6.29
-10.18
-14.36
-19.15
-24.77
-31.34
-38.74
-46.72
-55.01
-63.31
-71.4
-78.85
-84.97
-88.68
-88.66
-83.84
-73.8
-59.08
-41.21
-22.22
-4.06
11.87
24.99
35.39
43.45
49.54
53.8
56.24
56.87
55.89
53.71
50.88
47.9
45.15
42.85
41.05
39.77
38.9
38.31
37.83
37.22
36.31
34.95
33.09
30.73
27.88
24.51
20.59
16.07
10.91
5.14
-1.14
-7.74
-14.44
-21.02
-27.41
-33.66
-40.01
-46.76
-54.13
-62.06
-69.92
-76.57
-80.53
-80.3
-74.92
-64.24
-49.07
-30.98
-11.88
6.34
22.26
35.03
44.33
50.28
53.2
53.51
51.64
48.05
43.29
37.97
32.72
28.15
24.69
22.49
21.46
21.34
21.75
22.37
22.95
23.34
23.42
23.03
22.01
20.14
17.28
13.36
8.53
3.07
-2.66
-8.32
-13.74
-18.88
-23.88
-28.98
-34.49
-40.71
-47.86
-55.86
-64.13
-71.49
-76.35
-77.04
-72.38
-62.09
-46.95
-28.56
-8.98
9.74
26
38.75
47.57
52.55
54.15
53.03
49.9
45.4
40.07
34.36
28.7
23.52
19.19
15.97
13.97
13.07
13.03
13.52
14.19
14.81
15.15
15.03
14.24
12.54
9.74
5.79
0.87
-4.63
-10.22
-15.49
-20.27
-24.7
-29.17
-34.19
-40.21
-47.43
-55.61
-63.97
-71.17
-75.58
-75.63
-70.28
-59.4
-43.87
-25.4
-6.08
12.12
27.78
40.08
48.83
54.2
56.5
56.11
53.48
49.12
43.61
37.62
31.76
26.56
22.39
19.42
17.63
16.85
16.86
17.39
18.23
19.18
20.02
20.49
20.21
18.79
15.9
11.5
5.84
-0.55
-7.05
-13.18
-18.75
-23.91
-28.98
-34.41
-40.55
-47.55
-55.26
-63.07
-69.9
-74.28
-74.67
-69.9
-59.58
-44.35
-25.71
-5.7
13.6
30.55
44.05
53.66
59.36
61.48
60.48
56.99
51.77
45.57
39.22
33.46
28.84
25.74
24.19
24.01
24.84
26.22
27.77
29.19
30.23
30.66
30.22
28.64
25.79
21.79
17.04
12.12
7.58
3.72
0.45
-2.65
-6.13
-10.44
-15.71
-21.76
-28.14
-34.31
-39.88
-44.69
-48.92
-53.01
-57.58
-63.04
-69.36
-75.8
-80.9
-82.87
-80.02
-71.44
-57.3
-38.9
-18.29
2.31
21.01
36.56
48.37
56.34
60.69
61.75
60.02
56.07
50.64
44.54
38.53
33.26
29.18
26.54
25.38
25.55
26.78
28.77
31.18
33.7
36.03
37.81
38.7
38.36
36.59
33.38
29
23.85
18.42
13.13
8.2
3.67
-0.59
-4.81
-9.23
-14.05
-19.27
-24.74
-30.11
-34.97
-39.03
-42.22
-44.81
-47.33
-50.4
-54.58
-60.08
-66.6
-73.22
-78.54
-80.94
-79.01
-71.91
-59.72
-43.41
-24.68
-5.52
12.19
27.09
38.4
45.98
50.08
51.22
49.97
46.95
42.74
37.93
33.05
28.63
25.06
22.63
21.43
21.41
22.33
23.95
25.96
28.13
30.2
31.87
32.77
32.51
30.83
27.71
23.43
18.48
13.37
8.45
3.78
-0.81
-5.56
-10.63
-16
-21.47
-26.76
-31.66
-36.08
-40.21
-44.39
-49.06
-54.51
-60.71
-67.06
-72.48
-75.57
-74.96
-69.71
-59.59
-45.22
-27.92
-9.43
8.47
24.29
37.06
46.39
52.32
55.22
55.56
53.81
50.44
45.89
40.66
35.27
30.24
26.01
22.89
21.07
20.57
21.28
22.98
25.29
27.77
29.87
31.08
31.03
29.53
26.68
22.8
18.32
13.66
9.07
4.61
0.17
-4.47
-9.45
-14.81
-20.44
-26.14
-31.68
-36.88
-41.63
-46.01
-50.27
-54.83
-60.08
-66.22
-72.93
-79.24
-83.66
-84.48
-80.32
-70.55
-55.62
-36.91
-16.48
3.49
21.17
35.35
45.58
51.99
55.01
55.22
53.18
49.4
44.44
38.93
33.5
28.69
24.88
22.21
20.66
20.11
20.42
21.45
23
24.77
26.38
27.44
27.61
26.71
24.73
21.84
18.29
14.37
10.24
5.96
1.42
-3.58
-9.2
-15.46
-22.13
-28.77
-34.89
-40.14
-44.52
-48.45
-52.59
-57.6
-63.79
-70.89
-77.96
-83.52
-85.93
-83.74
-76.17
-63.34
-46.31
-26.8
-6.85
11.7
27.48
39.72
48.25
53.2
54.96
54.04
51.03
46.67
41.75
36.92
32.7
29.35
26.92
25.38
24.7
24.9
25.98
27.85
30.22
32.65
34.58
35.46
34.91
32.81
29.33
24.87
19.91
14.87
9.94
5.14
0.24
-4.97
-10.59
-16.59
-22.79
-28.95
-34.88
-40.5
-45.9
-51.31
-57.11
-63.54
-70.6
-77.68
-83.61
-86.83
-85.82
-79.57
-67.96
-51.86
-32.9
-13.04
5.84
22.27
35.34
44.7
50.44
52.95
52.75
50.41
46.54
41.73
36.61
31.73
27.53
24.32
22.27
21.45
21.8
23.14
25.12
27.2
28.77
29.33
28.66
26.85
24.18
20.99
17.48
13.66
9.43
4.69
-0.55
-6.18
-12.01
-17.89
-23.7
-29.4
-34.99
-40.55
-46.16
-52.04
-58.35
-65.09
-71.86
-77.72
-81.28
-80.99
-75.72
-65.1
-49.76
-31.21
-11.47
7.46
23.92
36.93
46.11
51.6
53.82
53.3
50.61
46.31
41.08
35.64
30.81
27.25
25.38
25.23
26.43
28.43
30.61
32.48
33.74
34.27
34.12
33.32
31.93
29.88
27.04
23.29
18.6
13.04
6.79
0.02
-7.09
-14.39
-21.65
-28.63
-35.16
-41.22
-47.1
-53.23
-60
-67.37
-74.65
-80.51
-83.31
-81.49
-74.09
-61.09
-43.44
-22.93
-1.72
18.02
34.62
47.06
55.06
58.98
59.56
57.69
54.25
49.96
45.35
40.78
36.55
32.85
29.91
27.88
26.89
26.96
27.97
29.62
31.44
32.96
33.72
33.45
32.06
29.6
26.16
21.84
16.75
11.03
4.89
-1.47
-7.83
-14.09
-20.19
-26.12
-31.88
-37.53
-43.22
-49.27
-56.02
-63.65
-71.84
-79.6
-85.34
-87.21
-83.62
-73.84
-58.28
-38.48
-16.76
4.4
22.93
37.52
47.68
53.66
56.04
55.57
52.96
48.94
44.21
39.44
35.27
32.14
30.26
29.61
29.98
31.12
32.82
34.89
37.15
39.31
40.92
41.5
40.64
38.18
34.34
29.55
24.32
19.02
13.83
8.65
3.32
-2.3
-8.25
-14.39
-20.54
-26.48
-32.09
-37.36
-42.51
-47.85
-53.82
-60.72
-68.53
-76.7
-84.01
-88.75
-89.06
-83.53
-71.71
-54.41
-33.51
-11.51
9.14
26.64
40.03
49.2
54.48
56.52
55.95
53.47
49.77
45.54
41.38
37.77
35.06
33.39
32.84
33.32
34.71
36.76
39.19
41.63
43.71
45.04
45.27
44.16
41.61
37.73
32.84
27.39
21.81
16.42
11.27
6.22
0.97
-4.75
-11.06
-17.82
-24.69
-31.18
-36.91
-41.73
-45.91
-49.99
-54.73
-60.62
-67.66
-75.07
-81.37
-84.67
-83.28
-76.16
-63.32
-45.86
-25.69
-5.06
13.89
29.65
41.41
49.03
52.86
53.53
51.72
48.15
43.55
38.63
34.03
30.29
27.76
26.55
26.6
27.71
29.6
31.95
34.43
36.65
38.24
38.88
38.32
36.4
33.14
28.7
23.41
17.7
11.97
6.47
1.25
-3.84
-9.02
-14.33
-19.66
-24.7
-29.15
-32.88
-36.03
-39
-42.29
-46.34
-51.36
-57.15
-63.04
-67.82
-70.02
-68.19
-61.43
-49.75
-34.18
-16.55
1.03
16.81
29.73
39.44
46.09
50.05
51.64
51.22
49.18
46.05
42.48
39.11
36.37
34.51
33.56
33.49
34.23
35.68
37.68
39.89
41.86
43.12
43.25
42.07
39.61
36.13
31.94
27.44
22.91
18.58
14.52
10.63
6.66
2.29
-2.74
-8.61
-15.28
-22.54
-30.13
-37.79
-45.37
-52.83
-60.15
-67.27
-73.84
-79.22
-82.43
-82.39
-78.19
-69.46
-56.58
-40.61
-23.11
-5.73
10.09
23.37
33.64
40.85
45.26
47.31
47.53
46.47
44.65
42.55
40.56
38.95
37.77
36.82
35.75
34.24
32.19
29.81
27.5
25.64
24.29
23.08
21.43
18.73
14.66
9.32
3.09
-3.52
-10.21
-16.8
-23.3
-29.67
-35.81
-41.46
-46.37
-50.34
-53.33
-55.47
-57.04
-58.37
-59.74
-61.38
-63.33
-65.38
-67.07
-67.58
-65.89
-60.96
-52.14
-39.5
-24
-7.31
8.52
21.7
31.11
36.57
38.7
38.52
37.12
35.25
33.27
31.27
29.27
27.34
25.69
24.55
24.12
24.47
25.58
27.4
29.79
32.53
35.25
37.37
38.32
37.68
35.43
31.95
27.89
23.88
20.29
17.09
13.92
10.34
6.02
0.96
-4.6
-10.15
-15.17
-19.3
-22.44
-24.83
-26.97
-29.54
-33.09
-37.95
-43.94
-50.36
-56.03
-59.56
-59.69
-55.72
-47.75
-36.64
-23.8
-10.7
1.49
12.11
20.93
27.93
33.12
36.4
37.71
37.12
34.93
31.72
28.13
24.85
22.38
21.07
21.01
22.13
24.12
26.56
28.97
30.91
32.1
32.39
31.82
30.45
28.45
25.99
23.3
20.63
18.21
16.15
14.31
12.39
9.97
6.73
2.61
-2.19
-7.26
-12.16
-16.59
-20.52
-24.18
-27.96
-32.33
-37.62
-43.78
-50.33
-56.29
-60.37
-61.37
-58.51
-51.73
-41.79
-30
-17.89
-6.79
2.41
9.4
14.27
17.35
19.04
19.57
19.11
17.74
15.61
13.01
10.3
7.89
6.12
5.2
5.18
5.92
7.13
8.39
9.16
8.92
7.34
4.39
0.48
-3.75
-7.62
-10.68
-12.92
-14.71
-16.59
-19.01
-22.12
-25.79
-29.7
-33.5
-36.99
-40.13
-43.03
-45.92
-49.01
-52.46
-56.17
-59.69
-62.23
-62.74
-60.29
-54.35
-45.03
-33.14
-19.99
-7.04
4.49
13.79
20.57
24.95
27.24
27.84
27.07
25.23
22.56
19.37
15.98
12.77
10.06
8.12
7.1
7.05
7.91
9.48
11.48
13.56
15.34
16.5
16.77
15.95
13.97
10.82
6.66
1.81
-3.34
-8.35
-12.85
-16.7
-20.02
-23.17
-26.69
-31.07
-36.68
-43.47
-51.06
-58.56
-64.78
-68.39
-68.26
-63.77
-55.05
-42.95
-28.87
-14.43
-1.07
10.14
18.67
24.43
27.65
28.77
28.3
26.78
24.66
22.32
20.04
18.03
16.47
15.47
15.16
15.53
16.51
17.87
19.31
20.46
21.05
20.87
19.91
18.22
15.93
13.14
9.95
6.45
2.72
-1.13
-4.99
-8.83
-12.64
-16.5
-20.49
-24.78
-29.6
-35.15
-41.56
-48.61
-55.66
-61.61
-65.12
-64.94
-60.28
-51.1
-38.16
-22.89
-7
7.83
20.34
29.85
36.23
39.8
41.1
40.79
39.44
37.54
35.44
33.37
31.41
29.62
28.04
26.78
26.03
25.97
26.64
27.89
29.33
30.42
30.67
29.81
27.86
25.1
21.86
18.43
14.89
11.19
7.24
2.99
-1.52
-6.23
-11.11
-16.15
-21.34
-26.56
-31.64
-36.44
-40.99
-45.57
-50.59
-56.27
-62.27
-67.57
-70.64
-69.89
-64.32
-53.94
-39.79
-23.65
-7.42
7.37
19.77
29.44
36.4
40.85
43.01
43.2
41.86
39.53
36.82
34.26
32.21
30.82
30.06
29.83
30.01
30.52
31.31
32.3
33.38
34.34
34.89
34.76
33.74
31.78
28.96
25.49
21.64
17.65
13.66
9.67
5.56
1.14
-3.71
-8.98
-14.5
-19.93
-24.93
-29.27
-32.91
-36.1
-39.28
-43.04
-47.82
-53.64
-59.85
-65.13
-67.74
-66.09
-59.26
-47.44
-31.88
-14.47
2.79
18.29
31.11
40.87
47.63
51.63
53.21
52.78
50.86
48.08
45.09
42.45
40.48
39.27
38.63
38.35
38.27
38.42
38.96
40.06
41.75
43.84
45.99
47.78
48.85
49.04
48.39
47.13
45.61
44.17
42.98
41.94
40.73
38.92
36.27
32.85
29.15
25.82
23.46
22.3
22.15
22.48
22.55
21.64
19.13
14.65
8.28
0.69
-6.77
-12.39
-14.58
-12.43
-6.25
2.6
12.13
20.29
25.57
27.24
25.18
19.66
11.11
0.01
-13.03
-27.24
-41.65
-55.2
-67.01
-76.55
-83.79
-89.16
-93.32
-96.87
-100.19
-103.29
-105.94
-107.88
-108.92
-109.04
-108.36
-107.02
-105.19
-102.99
-100.47
-97.45
-93.64
-88.71
-82.5
-75.3
-67.75
-60.72
-54.85
-50.24
-46.38
-42.35
-37.1
-29.84
-20.23
-8.36
5.28
19.92
34.62
48.48
60.84
71.48
80.69
89.08
97.26
105.52
113.56
120.46
124.97
125.96
122.88
116.09
106.86
96.96
88.19
81.83
78.38
77.55
78.57
80.49
82.43
83.57
83.1
80.16
74
64.36
51.71
37.33
22.99
10.29
0.11
-7.78
-14.4
-20.96
-28.13
-35.64
-42.52
-47.61
-50.32
-50.98
-50.62
-50.56
-51.76
-54.45
-58.24
-62.43
-66.37
-69.71
-72.25
-73.72
-73.49
-70.67
-64.32
-53.98
-39.93
-23.27
-5.69
11.08
25.72
37.57
46.7
53.62
59.01
63.44
67.23
70.47
73.05
74.68
74.88
72.98
68.19
59.96
48.32
34.08
18.72
4.08
-8.21
-17.02
-21.82
-22.55
-19.45
-13.14
-4.67
4.35
11.88
15.94
15.06
8.69
-2.79
-18.34
-36.64
-56.48
-76.83
-97.06
-116.82
-135.96
-154.41
-172.06
-188.43
-202.43
-212.29
-216
-211.93
-199.66
-180.33
-156.3
-130.44
-105.12
-81.75
-60.76
-42.01
-25.16
-9.52
6.3
24.49
47.6
77.27
113.22
152.86
192.05
226.59
253.79
273.1
285.93
294.74
301.85
308.54
314.64
318.58
317.6
308.39
287.97
254.75
209.6
156.32
101.14
51.06
11.76
-14.41
-29.11
-37.28
-45.11
-57.61
-76.8
-101.5
-128.24
-153.05
-172.93
-186.42
-193.44
-194.62
-190.86
-183.24
-173.15
-162.4
-152.97
-146.48
-143.67
-144.17
-146.78
-150.08
-152.95
-154.94
-156.09
-156.6
-156.41
-155.24
-152.53
-147.68
-140.08
-129.25
-115.12
-98.26
-80.12
-62.84
-48.72
-39.34
-34.97
-34.54
-36.14
-37.9
-38.75
-38.72
-38.72
-40.05
-43.78
-50.36
-59.44
-69.77
-79.41
-86.06
-87.58
-82.61
-70.78
-52.79
-30.06
-4.26
23.03
50.56
77.43
102.99
126.84
148.82
169.03
187.82
205.68
223.2
240.85
258.91
277.37
295.81
313.29
328.26
338.71
342.26
336.63
320.14
292.26
253.99
207.78
156.97
104.93
54.19
6.17
-38.66
-80.07
-117.58
-150.49
-178.3
-201.25
-220.35
-237.06
-252.34
-266.1
-277.06
-283.27
-282.92
-275
-259.6
-237.93
-212.1
-184.89
-159.31
-138.08
-122.96
-114.22
-110.56
-109.62
-109.04
-107.48
-105.01
-102.62
-101.11
-99.95
-96.94
-88.91
-73.13
-48.77
-17.62
16.3
48.06
73.36
89.87
97.5
97.96
93.81
87.53
80.86
74.56
68.46
61.87
53.94
44.18
32.54
19.53
5.96
-7.23
-19.15
-28.96
-35.85
-39.02
-37.81
-32.04
-22.3
-10.06
2.67
13.88
22.19
27.18
29.3
29.57
29.18
29.3
31.04
35.33
42.6
52.57
64.07
75.31
84.39
89.8
90.64
86.63
78
65.58
50.78
35.65
22.43
12.87
7.62
6.09
6.97
8.9
11.16
13.56
16.07
18.41
20.32
22.14
25.47
32.93
47.04
68.75
96.43
126.16
153.14
173.58
185.93
190.95
190.77
187.5
182.4
175.78
167.63
158.42
149.4
142.36
138.82
139.13
141.84
144
142.05
133.31
117.25
95.89
73.19
53.46
39.66
32.28
29.24
26.9
21.52
10.68
-5.87
-26.3
-47.44
-65.91
-79.25
-86.53
-88.4
-86.61
-83.19
-79.75
-76.81
-73.85
-69.52
-62.2
-50.64
-34.51
-14.67
7.08
28.58
48.19
65.46
80.98
95.69
109.75
121.89
129.57
130.19
122.38
106.89
86.37
64.39
44.14
27.61
15.33
6.65
0.16
-5.97
-13.49
-23.64
-36.65
-51.61
-66.91
-80.87
-92.46
-101.32
-107.43
-110.56
-110.09
-105.59
-97.52
-87.65
-78.6
-72.7
-70.87
-72.22
-74.59
-75.85
-75.11
-73.09
-71.55
-72.08
-75
-78.93
-81.32
-79.5
-71.88
-58.49
-40.89
-21.38
-2.15
15.35
30.63
43.82
55.27
65.11
72.95
77.86
78.51
73.74
63.21
48.02
30.77
14.96
3.74
-1.33
-0.96
2.12
4.3
2.5
-4.92
-17.83
-34.86
-54.06
-73.47
-91.25
-105.74
-115.52
-119.7
-118.29
-112.29
-103.47
-93.8
-84.91
-77.66
-72.21
-68.23
-65.18
-62.48
-59.52
-55.71
-50.44
-43.2
-33.76
-22.17
-8.78
5.9
21.18
36.14
49.46
59.55
64.81
64.12
57.35
45.38
29.93
13
-3.76
-19.35
-33.39
-45.81
-56.38
-64.5
-69.22
-69.61
-65.16
-56.13
-43.48
-28.63
-13.05
2.15
16.37
29.28
40.52
49.51
55.53
58.1
57.37
54.24
50.07
46.12
43.04
40.7
38.37
35.28
30.99
25.6
19.72
14.21
10.03
8.01
8.75
12.46
18.84
27.19
36.71
46.87
57.6
69.13
81.54
94.27
106.11
115.64
121.79
124.31
123.64
120.43
115.01
107.19
96.55
83.06
67.41
51.08
35.78
22.82
12.64
4.72
-2.02
-8.74
-16.2
-24.54
-33.32
-41.75
-49.03
-54.67
-58.63
-61.29
-63.21
-64.84
-66.37
-67.57
-68.11
-67.73
-66.48
-64.73
-62.98
-61.63
-60.86
-60.51
-60.14
-59.19
-57.06
-53.2
-47.25
-39.16
-29.31
-18.38
-7.24
3.4
13.21
22.24
30.83
39.23
47.36
54.56
59.67
61.31
58.26
49.97
36.92
20.64
3.5
-11.94
-23.64
-30.62
-33.18
-32.77
-31.29
-30.43
-31.2
-33.7
-37.37
-41.37
-45.11
-48.46
-51.77
-55.58
-60.21
-65.56
-70.96
-75.41
-77.86
-77.48
-73.87
-67.04
-57.37
-45.65
-33.06
-21.17
-11.8
-6.54
-6.32
-10.94
-19.03
-28.31
-36.27
-40.68
-40.13
-34.21
-23.54
-9.51
6.05
21.3
34.83
45.95
54.76
61.9
68.14
73.9
79.03
82.78
84.19
82.58
77.86
70.76
62.61
55.03
49.47
46.78
47
49.27
52.15
54.01
53.59
50.42
44.89
38.09
31.22
25.02
19.35
13.31
5.66
-4.45
-17.13
-31.57
-46.34
-59.77
-70.22
-76.29
-76.98
-71.92
-61.71
-48.07
-33.62
-21.16
-12.81
-9.21
-9.35
-11.11
-12.23
-11.28
-8.11
-3.63
0.77
3.98
5.45
5.21
3.56
0.75
-3.16
-8.23
-14.49
-21.79
-29.78
-37.97
-45.82
-52.76
-58.23
-61.64
-62.48
-60.46
-55.64
-48.58
-40.26
-31.91
-24.68
-19.3
-15.94
-14.16
-13.27
-12.6
-11.63
-10.02
-7.19
-2.2
6.21
19.11
36.73
58.04
80.73
101.73
117.84
126.32
125.19
113.42
91.08
59.51
21.48
-18.92
-56.82
-87.55
-107.67
-115.69
-112.26
-99.66
-81.08
-59.91
-39.19
-21.22
-7.31
2.63
10.19
18.2
29.92
47.67
71.63
99.45
126.87
149.47
164.47
171.71
173.32
172.34
171.1
170.39
169.75
168.54
166.77
165.03
163.66
161.64
156.4
144.62
123.73
93.25
54.91
11.75
-33.21
-77.78
-120.55
-160.12
-194.52
-221.31
-238.35
-244.7
-241.05
-229.34
-212.03
-191.42
-169.46
-147.79
-127.98
-111.37
-98.76
-89.98
-83.96
-79.08
-73.92
-67.87
-61.22
-55.01
-50.37
-47.97
-47.7
-48.7
-49.86
-50.18
-49.28
-47.36
-45.02
-42.95
-41.56
-40.99
-40.92
-40.74
-39.67
-36.88
-31.69
-23.76
-13.26
-0.84
12.46
25.45
37.08
46.6
53.65
58.28
60.69
61.1
59.68
56.51
51.73
45.63
38.75
31.73
25.22
19.62
14.98
11.06
7.41
3.62
-0.61
-5.3
-10.21
-14.97
-19.12
-22.4
-24.87
-26.92
-29.27
-32.57
-37.24
-43.22
-49.93
-56.58
-62.49
-67.41
-71.73
-76.18
-81.51
-88.01
-95.19
-101.8
-106.17
-106.67
-102.25
-92.83
-79.33
-63.64
-48.15
-35.26
-26.76
-23.42
-24.76
-29.17
-34.4
-38.08
-38.31
-34.04
-25.2
-12.62
2.44
18.75
35.59
52.8
70.62
89.19
108.06
126.13
141.93
154.14
162.06
165.62
165.05
160.5
151.96
139.53
123.97
106.98
90.95
78.2
70.19
66.89
67
68.48
69.38
68.4
65.2
60.17
54.21
48.4
43.81
41.38
41.6
44.4
48.86
53.36
55.84
54.48
48.28
37.46
23.49
8.67
-4.58
-14.34
-19.67
-20.65
-18.22
-13.88
-9.42
-6.61
-6.96
-11.13
-18.47
-26.61
-31.94
-30.63
-20.23
-0.91
24.09
49.35
69
78.72
76.95
65.08
46.31
24.08
0.89
-22.09
-44.35
-65.23
-83.44
-97.47
-106.52
-111.22
-113.68
-116.34
-120.6
-125.82
-129.5
-128.67
-121.65
-109.15
-94.07
-80.06
-69.66
-63.12
-58.37
-52.31
-42.63
-28.99
-13.2
1.78
13.52
21.24
25.91
29.31
32.83
36.79
40.75
44.41
48.14
52.79
58.77
65.22
70.1
71.06
66.86
58.08
46.83
35.66
26.44
19.88
15.89
14.34
15.44
19.56
26.76
36.17
46.07
54.36
59.39
60.74
59.55
58.33
60.2
67.87
82.6
103.96
130
158.06
185.44
209.96
229.92
244
251.07
250.15
240.64
222.64
197.26
166.8
134.43
103.52
76.67
54.91
37.44
22.16
6.94
-9.29
-25.96
-41.24
-53.19
-60.75
-64.24
-64.94
-64.42
-63.87
-63.93
-64.91
-67.03
-70.4
-74.89
-79.95
-84.64
-88
-89.49
-89.31
-88.36
-88.14
-90.29
-96.17
-106.11
-118.95
-131.73
-140.23
-140.17
-128.7
-105.72
-74.01
-38.47
-4.42
24.07
44.95
58.24
65.1
67.07
65.43
61.25
55.62
49.88
45.43
43.32
43.67
45.4
46.46
44.6
38.38
27.82
14.39
0.34
-12.33
-22.55
-30.28
-36.03
-40.24
-43.01
-44.3
-44.45
-44.31
-45.18
-48.17
-53.67
-61.18
-69.53
-77.38
-83.72
-88.24
-91.39
-94.6
-100.51
-112.68
-134.53
-167.51
-209.23
-252.8
-288.25
-305.52
-298.13
-265.72
-213.97
-152.34
-90.46
-35
11.57
50.35
84.06
114.97
143.84
169.82
191.13
205.74
211.95
208.68
195.77
174.14
145.8
113.69
81.01
50.23
22.37
-3.08
-27.41
-51.64
-75.65
-98.16
-117.39
-132.04
-141.82
-147.1
-148.25
-145.03
-136.81
-123.21
-104.93
-83.95
-63.04
-44.61
-29.9
-18.82
-10.48
-4.04
0.92
4.49
6.99
9.35
13.02
19.22
28.15
38.75
49.04
57.18
62.29
64.76
65.78
66.52
67.48
68.41
68.65
67.78
65.77
62.99
59.88
56.66
53.15
49.1
44.41
39.36
34.68
31.31
30.07
31.34
34.78
39.48
44.3
48.32
51.15
53.04
54.43
55.62
56.49
56.48
54.96
51.67
46.83
41.17
35.56
30.71
26.78
23.45
19.94
15.38
9.17
1.3
-7.47
-15.72
-21.81
-24.33
-22.66
-17.11
-8.77
0.93
10.71
19.87
28.18
35.78
42.76
49.01
54.11
57.61
59.37
59.79
60.08
62.1
68.1
80.06
98.9
123.53
150.48
174.22
188.46
188.23
171.72
141.27
102.67
63.15
28.89
3.04
-14.68
-27
-37.27
-47.84
-59.5
-71.64
-83.13
-92.86
-100.03
-104.09
-104.85
-102.63
-98.52
-94.31
-92.06
-93.37
-98.78
-107.67
-118.45
-129.02
-137.15
-140.78
-138.51
-130.14
-117.22
-103.12
-92.2
-88.23
-92.76
-104.07
-117.44
-126.73
-126.71
-114.82
-92.07
-62.49
-31.78
-5.81
10.53
13.91
2.7
-22.98
-61.04
-107.34
-155.8
-199.16
-230.61
-245.71
-243.75
-227.95
-204.08
-178.07
-153.92
-132.6
-112.75
-92.33
-70.39
-47.83
-26.95
-10.13
1.28
7.51
9.99
10.72
11.57
14.07
19.37
28.27
41.09
57.59
76.76
96.98
116.24
132.53
144.13
149.85
149.19
142.44
130.65
115.51
98.95
82.79
68.29
55.92
45.51
36.43
28.07
20.25
13.23
7.68
4.3
3.57
5.44
9.36
14.41
19.48
23.57
26.03
26.64
25.69
23.73
21.39
19.04
16.81
14.64
12.59
10.9
9.93
9.85
10.36
10.8
10.4
8.78
6.22
3.49
1.37
0.14
-0.62
-1.65
-3.23
-4.69
-4.37
-0.44
8.14
20.65
34.58
46.38
52.72
51.72
43.6
30.42
15.1
0.29
-12.53
-23.07
-31.8
-39.16
-45.08
-48.98
-50.2
-48.62
-44.9
-40.28
-35.95
-32.44
-29.32
-25.44
-19.62
-11.27
-0.69
11.09
22.87
33.72
43.17
50.81
55.92
57.17
53.06
42.64
26.37
6.44
-13.67
-30.2
-40.3
-42.77
-38.2
-28.46
-16.03
-3.35
7.64
15.74
20.53
22.3
21.7
19.46
16.13
11.98
7.23
2.27
-2.29
-5.62
-6.81
-4.94
0.88
11.3
26.29
44.71
63.99
80.56
90.92
93.09
87.44
76.64
64.36
53.65
45.71
39.78
33.96
26.59
16.99
5.45
-7.39
-21.26
-36.42
-53.29
-71.7
-90.4
-107.18
-119.5
-125.3
-123.59
-114.49
-98.81
-77.62
-51.89
-22.59
9.1
41.56
72.72
100.3
122.31
137.36
145.02
145.76
140.96
132.59
122.9
113.96
107.25
103.31
101.68
101.2
100.46
98.31
94.29
88.66
82.18
75.86
70.54
66.6
63.88
61.79
59.48
56.2
51.49
45.33
38.16
30.62
23.33
16.69
10.64
4.73
-1.79
-9.6
-19
-29.53
-39.93
-48.29
-52.7
-51.8
-45.45
-34.89
-22.35
-10.37
-0.9
5.23
8.35
9.54
9.84
9.77
9.05
6.84
2.11
-5.8
-16.86
-30.2
-44.29
-57.39
-67.99
-75.28
-79.32
-80.85
-80.93
-80.47
-79.75
-78.39
-75.54
-70.2
-61.76
-50.19
-36.18
-20.92
-5.86
7.76
19.06
27.61
33.29
36.01
35.67
32.13
25.45
16.09
5.08
-6
-15.27
-20.81
-21.05
-15.1
-2.96
14.4
35.18
56.97
77.11
93.04
102.65
104.61
98.59
85.45
67.1
46.21
25.58
7.55
-6.52
-16.35
-22.53
-26.15
-28.3
-29.81
-31.05
-32.05
-32.62
-32.54
-31.76
-30.43
-28.94
-27.74
-27.23
-27.56
-28.67
-30.27
-32.08
-33.94
-35.98
-38.51
-41.94
-46.64
-52.67
-59.74
-67.1
-73.55
-77.63
-77.88
-73.38
-64.05
-50.8
-35.37
-19.74
-5.59
6.07
14.98
21.42
25.78
28.39
29.46
29.1
27.53
25.05
21.98
18.61
15.15
11.78
8.69
6.14
4.36
3.57
3.76
4.72
5.94
6.8
6.66
5.08
1.96
-2.45
-7.68
-13.18
-18.53
-23.53
-28.26
-33.04
-38.29
-44.43
-51.64
-59.63
-67.46
-73.59
-76.23
-73.94
-66.11
-53.41
-37.53
-20.77
-5.31
7.35
16.54
22.34
25.19
25.63
24.16
21.32
17.79
14.4
12.01
11.21
12.21
14.73
18.22
22.11
26.17
30.61
35.97
42.82
51.43
61.41
71.91
81.92
90.74
98.38
105.45
112.85
121.18
130.28
139.17
146.36
150.23
149.46
143.19
131.09
113.63
92.28
69.71
49.42
34.82
28.02
28.85
34.82
42.17
47.41
48.63
45.93
40.66
34.32
27.51
19.81
10.45
-0.87
-13.47
-25.94
-36.79
-45.23
-51.32
-55.77
-59.3
-62.27
-64.66
-66.39
-67.78
-69.61
-72.86
-78.19
-85.5
-93.84
-101.66
-107.41
-109.95
-108.92
-104.6
-97.8
-89.6
-81.11
-73.35
-67.14
-62.87
-60.47
-59.26
-58.15
-55.76
-50.73
-42.1
-29.48
-13.23
5.69
25.97
46.29
65.66
83.59
99.94
114.62
127.28
137.05
142.7
142.97
137.11
125.31
108.81
89.55
69.64
50.91
34.54
21.12
10.6
2.4
-4.73
-12.6
-23.04
-37.15
-54.37
-72.42
-87.89
-97.51
-99.25
-92.96
-80.08
-62.97
-44.15
-25.93
-10.16
1.92
9.92
14.37
16.52
17.66
18.42
18.46
16.9
13.22
7.93
2.76
-0.17
0.64
5.37
12.76
20.75
27.28
31.08
31.94
30.46
27.67
24.62
22.02
20.14
18.79
17.52
15.9
13.79
11.4
9.24
7.86
7.55
8.23
9.55
11.1
12.66
14.3
16.16
18.28
20.38
21.89
22.14
20.7
17.56
13.23
8.71
5.3
4.36
6.96
13.54
23.4
34.5
43.48
46.21
38.8
18.85
-13.54
-55.37
-101.06
-143.54
-176.01
-193.5
-194.22
-179.81
-154.87
-125.41
-97.2
-74.3
-58.42
-49.19
-45.04
-44.11
-44.88
-46.27
-47.44
-47.67
-46.5
-43.93
-40.66
-37.82
-36.47
-37.06
-39.16
-41.61
-43.03
-42.32
-39.07
-33.61
-26.93
-20.41
-15.42
-12.8
-12.32
-12.44
-10.56
-3.72
10.21
31.46
57.8
84.88
107.28
120.03
119.9
106.16
80.56
46.7
9.05
-28.04
-61.08
-87.81
-107.18
-119.04
-123.8
-122.16
-115.18
-104.32
-91.55
-79.17
-69.29
-63.16
-60.67
-60.33
-59.9
-57.4
-51.97
-44.17
-35.58
-27.81
-21.66
-16.68
-11.54
-4.91
3.85
14.23
24.92
34.49
42.01
47.44
51.43
54.86
58.31
61.81
64.87
66.76
66.81
64.59
60.02
53.38
45.4
37.15
30.04
25.41
24.14
26.29
31.05
36.97
42.52
46.72
49.34
50.84
51.82
52.51
52.37
50.12
44.29
33.92
19.24
1.9
-15.37
-29.63
-38.53
-41.01
-37.37
-28.88
-17.26
-3.98
9.99
24.31
39.06
54.39
70.09
85.26
98.43
108
113.09
114.15
112.93
111.86
112.78
115.95
119.78
121.45
118.06
107.86
90.78
68.52
43.91
20.19
0.22
-14.06
-21.91
-23.73
-20.71
-14.3
-5.87
3.43
12.5
20.07
24.69
24.95
20.02
9.91
-4.58
-22.35
-42.61
-65.22
-90.5
-118.5
-148.17
-176.98
-201.5
-218.61
-226.85
-227.03
-221.74
-213.84
-205.14
-195.76
-184.7
-170.8
-153.5
-132.74
-108.47
-80.27
-47.72
-11.17
27.71
66.06
100.95
130.67
155.48
177.2
198.14
219.86
242.46
264.67
284.42
299.28
306.94
305.6
294.74
275.55
251.14
225.74
203.62
187.74
178.8
175.03
172.65
166.81
152.7
126.66
87.2
35.61
-23.97
-85.31
-141.59
-187.19
-218.98
-236.67
-241.93
-237.17
-224.48
-205.42
-181.54
-154.86
-128.15
-104.45
-86.18
-74.47
-68.96
-68.3
-70.82
-75.13
-80.27
-85.63
-90.79
-95.29
-98.72
-100.62
-100.52
-98.07
-93.12
-86.03
-77.72
-69.49
-62.52
-57.23
-52.93
-48.07
-40.84
-30.13
-16.11
-0.22
15.44
29.11
39.92
48.01
54.09
58.65
61.61
62.26
59.71
53.38
43.39
30.5
15.84
0.63
-13.95
-26.69
-36.29
-41.48
-41.36
-35.8
-25.64
-12.54
1.46
14.49
25.23
33.02
37.67
39.25
37.94
34.1
28.43
22.04
16.38
12.82
12.12
13.97
16.87
18.55
16.74
9.95
-2.06
-18.26
-36.81
-55.5
-72.16
-84.71
-91.27
-90.36
-81.44
-65.39
-44.66
-22.65
-2.73
12.91
23.79
30.91
35.9
39.93
43.16
44.77
43.52
38.43
29.18
16.17
0.39
-16.75
-33.42
-47.47
-56.69
-59.5
-55.57
-46.12
-33.61
-20.79
-9.87
-1.86
3.19
5.82
6.54
5.82
4.17
2.55
2.27
4.78
11.15
21.58
35.36
50.93
66.37
79.8
89.88
96
98.45
98.22
96.7
95.27
95.03
96.66
100.36
105.85
112.39
118.83
123.84
126.35
125.9
122.78
117.82
111.94
105.75
99.45
93.01
86.57
80.64
75.92
72.91
71.48
70.75
69.41
66.18
60.2
51
38.29
21.76
1.21
-23.12
-50.16
-78.05
-104.63
-128.13
-147.61
-163.01
-174.71
-183.22
-189.02
-192.7
-195.06
-196.82
-198.18
-198.45
-196.46
-191.27
-182.85
-172.14
-160.15
-147.06
-131.87
-113.31
-91.39
-68.62
-49.56
-38.69
-37.82
-44.48
-52.66
-55.61
-48.87
-32.04
-8.18
18.57
45.45
72.18
100.05
129.85
160.17
187.17
206.09
213.65
209.94
198.62
185.47
175.92
172.66
174.64
177.64
176.15
165.59
144.01
112.59
74.87
35.35
-1.98
-34.82
-62.97
-88.16
-113.28
-141.41
-174.57
-212.7
-253.11
-290.6
-318.58
-330.79
-323.49
-296.98
-255.98
-208.35
-162.38
-124.01
-95.09
-73.59
-55.38
-36.67
-15.62
7.37
30.68
52.75
72.8
90.72
106.4
119.42
128.98
134.41
135.61
133.07
127.53
119.71
110.1
98.96
86.53
72.94
58.21
42.13
24.4
4.99
-15.67
-36.48
-55.94
-72.55
-85.18
-93.08
-95.63
-92.08
-81.62
-63.94
-39.9
-12.03
15.86
39.82
57.18
67.4
72.02
73.56
74.14
74.51
73.92
70.98
64.55
54.59
42.03
28.24
14.29
0.51
-13.15
-26.57
-38.9
-48.37
-52.92
-51.09
-42.63
-28.67
-11.18
7.91
27.13
45.44
61.76
74.54
81.9
82.4
75.98
64.44
51.16
40.01
33.9
33.83
38.77
46.36
54.18
60.62
65.13
67.94
69.22
68.55
64.81
56.52
42.56
22.88
-1.12
-26.67
-50.2
-68.16
-78.04
-79
-72.03
-59.6
-44.78
-30.34
-18.06
-8.54
-1.46
3.77
7.41
9.07
7.73
2.22
-8.11
-22.86
-40.33
-57.94
-72.9
-83.28
-88.67
-90.24
-90.2
-90.81
-93.47
-98.25
-104.13
-109.53
-113.09
-113.95
-111.86
-106.88
-99.23
-89.2
-77.27
-64.24
-51.22
-39.38
-29.59
-22.1
-16.43
-11.55
-6.33
-0.03
7.48
15.73
23.98
31.63
38.44
44.44
49.61
53.65
55.97
55.9
53.26
48.52
42.97
38.32
36.23
37.84
43.47
52.64
64.19
76.6
88.22
97.48
103.03
103.9
99.71
90.89
78.82
65.71
54.07
45.98
42.36
42.66
45.18
47.84
48.98
47.81
44.41
39.49
34.04
29.22
26.18
25.95
29.06
35.23
43.24
51.33
57.9
62.09
64.14
65.03
65.91
67.51
70.02
73.33
77.39
82.43
88.84
96.75
105.61
114.04
120.09
121.87
118.1
108.56
94.01
75.84
55.65
35.16
16.23
0.88
-9.3
-13.98
-15.13
-17.04
-25.32
-44.55
-76.15
-117.18
-161.15
-200.3
-228.4
-242.62
-243.77
-235.06
-220.36
-202.83
-184.56
-166.96
-151.24
-138.49
-129.34
-123.38
-119.08
-114.31
-107.3
-97.61
-86.31
-75.47
-67.13
-62.34
-60.76
-60.92
-61.04
-59.75
-56.64
-52.29
-47.91
-44.8
-43.74
-44.76
-47.07
-49.33
-49.99
-47.74
-41.71
-31.63
-17.96
-1.79
15.23
31.22
44.52
54.15
60.01
62.79
63.5
62.9
61.33
58.81
55.33
51.27
47.37
44.56
43.48
44.2
46.22
48.8
51.36
53.7
55.91
58.14
60.34
62.19
63.26
63.24
62
59.48
55.58
50.17
43.26
35.26
27.1
19.98
14.8
11.65
9.72
7.52
3.62
-2.73
-11.28
-20.89
-29.9
-36.72
-40.26
-40.18
-36.92
-31.51
-25.21
-19.03
-13.4
-8
-1.94
5.71
15.36
26.43
37.24
45.21
47.67
42.75
30.18
11.77
-8.81
-27.04
-39.05
-42.96
-39.55
-31.86
-23.89
-19.1
-19.28
-24.33
-32.74
-42.57
-52.01
-59.79
-64.98
-66.72
-64.27
-57.13
-45.33
-29.46
-10.46
10.57
32.59
54.56
75.19
93
106.48
114.49
116.54
112.98
104.71
92.83
78.23
61.43
42.74
22.48
1.14
-20.44
-41.18
-59.82
-75.19
-86.4
-93.14
-95.74
-94.98
-91.86
-87.24
-81.76
-75.93
-70.36
-65.78
-62.87
-61.76
-61.75
-61.33
-58.59
-51.97
-40.82
-25.66
-8.01
10.14
27.02
41.77
54.61
66.54
78.63
91.31
104.21
116.38
127.06
136.22
144.4
152.17
159.47
165.59
169.88
172.45
174.33
176.47
178.4
177.38
168.97
148.98
115.55
69.98
16.02
-42.04
-100.91
-158.48
-212.79
-260.79
-298.02
-319.61
-322.16
-305.09
-270.79
-223.53
-168.04
-108.67
-49.31
6.11
53.48
89.11
110.78
118.74
115.84
106.61
95.77
86.66
80.51
76.51
72.84
67.79
60.53
51.22
40.47
28.94
17.02
5.14
-5.91
-14.76
-19.77
-19.71
-14.49
-5.27
5.9
17
26.64
34.22
39.46
41.92
40.77
35.16
24.77
10.14
-7.44
-26.35
-44.98
-61.82
-75.38
-84.09
-86.64
-82.5
-72.49
-58.81
-44.5
-32.31
-23.6
-17.84
-12.83
-5.71
5.64
21.64
40.71
59.93
76.27
87.87
94.6
97.76
98.99
99.33
98.68
96.24
91.27
83.83
74.81
65.46
56.55
48.04
39.14
29.05
17.53
5.25
-6.55
-16.55
-24.04
-29.07
-32.24
-34.21
-35.33
-35.52
-34.6
-32.5
-29.44
-25.75
-21.52
-16.46
-9.99
-1.64
8.48
19.58
30.3
39.17
44.93
46.86
44.86
39.43
31.51
22.3
12.82
3.62
-5.37
-14.52
-23.99
-33.29
-41.34
-46.81
-48.86
-47.49
-43.43
-37.68
-30.9
-23.29
-14.74
-5.3
4.62
14.42
23.55
31.91
39.68
47.15
54.41
61.35
67.89
74.14
80.37
86.69
92.78
97.71
100.24
99.22
93.82
83.8
69.57
52.2
33.26
14.36
-3.69
-21.44
-41.08
-65.36
-96.01
-132.05
-169.46
-202.32
-225.22
-235.41
-233.64
-223.27
-208.34
-191.75
-174.75
-157.47
-140.05
-123.33
-108.66
-97.12
-88.81
-82.57
-76.58
-69.09
-59.1
-46.57
-32.25
-17.23
-2.52
11.19
23.61
34.68
44.35
52.46
58.58
62.09
62.39
59.03
52.01
41.82
29.59
16.96
5.89
-1.85
-5.3
-4.73
-1.79
1.02
1.18
-2.95
-11.59
-23.45
-36.26
-47.49
-54.95
-57.35
-54.34
-46.46
-34.87
-21.01
-6.21
8.52
22.51
35.39
46.82
56.61
64.82
71.92
78.77
86.2
94.5
103.01
110.25
114.56
114.94
111.6
105.92
99.72
94.3
89.84
85.45
79.93
72.6
63.88
55.1
47.81
43.03
40.78
40.26
40.39
40.3
39.63
38.34
36.46
33.84
30.24
25.52
20.03
14.61
10.3
7.78
6.84
6.14
3.58
-3.05
-15.06
-32.17
-52.24
-71.93
-87.72
-97.18
-99.77
-96.84
-90.96
-84.8
-80.13
-77.36
-75.75
-74.08
-71.38
-67.52
-63.16
-59.36
-56.94
-55.98
-55.73
-54.97
-52.61
-48.15
-41.89
-34.61
-27.08
-19.76
-12.59
-5.17
2.98
12.21
22.65
34.14
46.24
58.08
68.48
76.01
79.43
77.89
71.28
60.2
45.86
29.84
13.89
-0.41
-11.86
-19.87
-24.73
-27.54
-30.05
-34.25
-41.8
-53.46
-68.75
-85.94
-102.39
-115.28
-122.17
-121.62
-113.31
-98.05
-77.58
-54.31
-30.92
-9.91
6.94
18.96
26.72
31.79
36
40.67
46.06
51.37
55.23
56.53
55.16
52.21
49.62
49.49
53.38
61.77
73.99
88.27
102.15
112.91
118.24
116.97
109.55
98.11
85.78
75.54
69.08
66.23
65.43
64.68
62.77
59.82
57.26
57.06
60.9
69.5
82.5
98.55
115.72
131.72
144.16
150.77
149.81
140.54
123.61
101.1
76.09
51.8
30.72
13.97
1.16
-9.06
-18.32
-27.7
-37.46
-47.12
-55.89
-63.12
-68.65
-72.8
-76.29
-80.06
-85
-91.74
-100.46
-110.72
-121.49
-131.23
-138.22
-141.02
-139.01
-132.63
-123.36
-113.4
-105.02
-99.76
-97.96
-98.39
-98.64
-95.93
-88.06
-74.3
-55.62
-34.42
-13.61
4.25
17.6
26.02
29.85
29.9
27.08
22.28
16.35
10.11
4.21
-0.99
-5.44
-9.37
-13.14
-17.16
-21.74
-26.99
-32.65
-37.96
-41.66
-42.37
-39.1
-31.8
-21.61
-10.48
-0.47
7.08
12
15.09
17.47
19.83
22
23.15
22.48
19.81
15.94
12.41
10.87
12.38
17.05
24.1
32.23
40.14
46.88
52.09
55.88
58.75
61.41
64.62
68.99
74.83
82.12
90.49
99.37
108.11
116.1
122.82
127.93
131.43
133.71
135.63
138.16
142.02
147.13
152.43
156.12
156.4
152.31
144.13
133.36
122.01
111.82
103.76
97.91
93.88
91.28
89.93
89.87
91.02
92.97
94.96
96.17
95.86
93.66
89.43
83.22
75.13
65.3
54
41.6
28.52
15.07
1.18
-13.62
-30
-48.37
-68.49
-89.29
-109.21
-126.88
-141.85
-154.63
-166.24
-177.24
-187.01
-193.72
-195.22
-190.45
-180.45
-168.63
-159.98
-159.49
-170.51
-193.8
-227.58
-268.35
-312.27
-356.22
-398.34
-437.73
-473.58
-504.41
-527.89
-541.29
-542.58
-531.18
-508.25
-476.15
-437.68
-395.76
-353.24
-312.95
-277.34
-247.73
-223.59
-202.48
-181.09
-156.93
-130
-103.14
-80.82
-66.74
-61.71
-62.93
-65.01
-62.12
-50.2
-28.04
3.11
40.73
82.32
126.01
170.5
214.48
256.19
293.7
325.52
351.14
371.2
387.26
401.15
414.42
428.07
442.48
457.32
471.46
482.89
488.68
485.58
470.64
442.08
399.95
346.02
283.47
216
146.93
78.7
12.77
-50.06
-109.09
-163.12
-210.13
-247.34
-271.72
-280.63
-272.67
-248.46
-211.01
-165.64
-119.07
-78.14
-48.04
-30.95
-25.67
-28.49
-35.01
-42.03
-48.55
-55.38
-63.67
-73.46
-83.02
-89.62
-90.94
-86.4
-77.41
-66.6
-56.56
-48.79
-43.46
-39.88
-37.26
-35.29
-34.23
-34.74
-37.5
-42.9
-50.74
-60.22
-70.1
-79.2
-86.89
-93.43
-99.71
-106.49
-113.48
-118.75
-119.12
-111.29
-93.31
-65.76
-31.66
4.54
38.67
68.1
92.21
111.85
128.27
142.27
153.95
162.91
168.73
171.27
170.63
167.15
161.29
153.61
144.76
135.34
125.87
116.87
109
103.1
99.96
99.81
101.81
104.11
104.51
101.37
94.49
85.11
75.35
67.34
62.5
61.35
63.59
68.33
74.37
80.4
85.42
89.03
91.69
94.5
98.54
104.21
110.93
117.45
122.62
126.19
129.02
132.78
139.19
149.28
163.05
179.53
197.18
214.28
229.24
240.77
247.94
250.24
247.52
240
228.15
212.74
194.86
176.09
158.23
142.63
129.56
117.68
104.53
87.3
64.04
34.3
-0.97
-40.1
-81.37
-123.31
-164.31
-202.2
-234.24
-257.77
-271.35
-275.64
-273.35
-268.31
-263.88
-261.79
-261.76
-262.09
-260.74
-256.38
-248.87
-239.02
-228
-216.89
-206.41
-197.15
-189.69
-184.64
-182.28
-182.17
-182.89
-182.2
-177.74
-167.76
-151.65
-130
-104.31
-76.4
-48.13
-21.1
3.32
24.05
40.41
52.36
60.66
66.64
71.8
77.24
83.22
89.11
93.9
96.76
97.53
96.9
96.02
95.88
96.75
97.94
98.09
95.64
89.42
79.04
64.83
47.69
28.76
9.13
-10.26
-28.78
-46.17
-62.53
-78.26
-93.82
-109.29
-124.06
-136.86
-146.05
-150.34
-149.4
-144.08
-136.11
-127.42
-119.49
-112.97
-107.83
-103.65
-99.84
-95.63
-89.9
-81.28
-68.56
-51.24
-29.92
-6.12
18.4
42.41
65.67
88.71
112.24
136.65
161.72
186.85
211.32
234.37
255.06
272.06
283.63
288.02
284.08
271.72
251.96
226.52
197.17
165.4
132.32
99.08
67.15
38.45
14.89
-2.33
-13.34
-19.8
-24.4
-29.9
-38.16
-49.44
-62.51
-75.33
-85.96
-93.36
-97.71
-100.26
-102.74
-106.55
-112.06
-118.31
-123.27
-124.56
-120.53
-110.98
-97.32
-81.93
-67.21
-54.66
-44.49
-36.02
-28.49
-21.63
-15.83
-11.76
-9.78
-9.63
-10.57
-11.85
-13.01
-13.96
-14.7
-14.91
-13.84
-10.57
-4.55
3.89
13.52
22.74
30.23
35.61
39.44
42.84
46.78
51.57
56.75
61.37
64.44
65.23
63.42
58.97
52.02
42.9
32.06
20.13
7.87
-4.11
-15.52
-26.52
-37.69
-49.66
-62.62
-75.95
-88.04
-96.64
-99.69
-96.2
-86.78
-73.6
-59.56
-47.24
-38.08
-32.12
-28.47
-26.04
-24.15
-22.73
-21.99
-22.06
-22.66
-23.22
-23.13
-22.12
-20.3
-18.05
-15.64
-12.93
-9.26
-3.73
4.37
15.11
27.73
40.99
53.74
65.42
76.11
86.19
95.66
103.77
109.19
110.69
107.93
101.77
93.92
86.02
78.72
71.46
62.83
51.51
37.13
20.67
4.09
-10.31
-20.75
-26.37
-27.36
-24.64
-19.36
-12.61
-5.14
2.58
10.22
17.54
24.32
30.41
35.83
40.74
45.37
49.85
54.14
58.07
61.48
64.37
66.98
69.63
72.58
75.83
79.16
82.25
84.82
86.65
87.53
87.11
84.85
80.13
72.53
62.02
49.01
34.15
18.14
1.52
-15.31
-32.01
-48.25
-63.67
-78
-91.08
-102.87
-113.28
-122.07
-128.78
-132.97
-134.46
-133.73
-131.86
-130.21
-129.85
-130.99
-132.84
-133.98
-133.08
-129.53
-123.78
-117.05
-110.73
-105.86
-102.68
-100.61
-98.32
-94.05
-86.09
-73.51
-56.78
-37.86
-19.65
-4.76
5.64
12.35
17.62
24
33.17
45.53
60.61
77.76
96.61
116.87
137.71
157.29
172.93
181.87
182.32
174.14
158.84
138.96
117.24
95.89
76.28
58.87
43.49
29.45
15.79
1.46
-14.4
-32.2
-51.59
-71.49
-90.14
-105.49
-115.7
-119.5
-116.51
-107.19
-92.71
-74.56
-54.25
-33.16
-12.55
6.25
21.79
32.65
37.91
37.59
32.86
25.8
18.66
13.16
9.96
8.78
8.86
9.6
10.85
12.9
16.01
20.1
24.57
28.62
31.63
33.45
34.27
34.28
33.35
30.94
26.53
20.05
12.06
3.43
-5.31
-14.6
-25.8
-40.47
-59.3
-81.33
-103.94
-123.69
-137.61
-144.14
-143.57
-137.53
-128.22
-117.55
-106.72
-96.12
-85.7
-75.23
-64.55
-53.64
-42.53
-31.12
-19.17
-6.32
7.56
22.19
36.72
50.05
61.22
69.92
76.62
82.25
87.6
92.79
97.17
99.69
99.58
96.83
92.23
87
82.08
77.83
74.02
70.24
66.3
62.46
59.24
57.11
56.16
56.06
56.12
55.61
53.92
50.78
46.28
40.84
35.09
29.67
25.01
21.37
18.83
17.42
17.23
18.38
20.84
24.33
28.32
32.36
36.24
40.26
44.97
50.77
57.54
64.55
70.84
75.9
80.01
84.2
89.58
96.54
104.33
111.35
116
117.62
116.86
115.39
114.9
116.24
119.04
122.03
123.82
123.54
120.9
115.81
107.79
95.57
77.45
51.87
18.09
-23.69
-72.49
-126.86
-184.63
-242.43
-295.32
-337.22
-362.5
-368.01
-354.48
-326.57
-291.12
-254.7
-221.53
-192.91
-168.13
-146.07
-126.44
-109.9
-97.3
-88.79
-83.36
-79.24
-74.76
-69.07
-62.43
-56.02
-51.13
-48.56
-48.26
-49.37
-50.73
-51.47
-51.57
-51.78
-53.29
-56.96
-62.78
-69.84
-76.69
-82.11
-85.57
-87.28
-87.62
-86.78
-84.53
-80.65
-75.35
-69.37
-63.47
-57.67
-50.65
-40.14
-24.07
-1.62
26.09
56.63
87.37
116.58
143.82
169.39
193.53
215.72
234.75
249.27
258.6
263.3
265.12
266.43
269.49
275.64
284.98
296.42
308.08
317.81
323.64
323.8
316.83
301.52
277.14
243.83
202.86
156.54
107.7
58.96
12.07
-32.23
-73.85
-112.9
-149.15
-181.88
-210.1
-232.97
-250.18
-262.41
-271.52
-280.35
-292.12
-309.47
-333.27
-361.97
-391.57
-416.58
-431.45
-432.14
-417.03
-387.16
-345.7
-297
-245.77
-196.27
-151.81
-114.43
-84.81
-62.33
-45.41
-32.02
-20.17
-8.29
4.58
18.79
34.22
50.42
66.75
82.48
96.93
109.53
119.82
127.45
132.12
133.62
131.94
127.37
120.64
112.88
105.23
98.54
92.96
88.02
82.84
76.68
69.21
60.52
50.87
40.38
28.88
16.05
1.78
-13.54
-29
-43.28
-55
-62.98
-66.42
-64.99
-58.87
-48.81
-36.02
-21.68
-6.42
10.01
28.35
48.84
70.21
89.41
102.42
105.8
98.3
81.4
58.64
34.17
11.42
-7.61
-22.12
-31.93
-37.06
-37.61
-33.84
-26.12
-14.76
0.1
17.95
37.26
54.87
66.5
68.19
58.32
38.94
15.74
-3.67
-12.42
-6.73
12.85
41.97
74.2
103.04
123.58
133.03
130.59
117
94.19
65.26
34.4
6.34
-14.59
-25.93
-27.91
-23.61
-17.8
-15.1
-18.31
-27.58
-40.82
-54.94
-67.25
-76.27
-81.82
-84.57
-85.42
