0
0
0
0
0
0
0
0
0
0
0
0.01
0.01
0
-0.03
-0.05
-0.05
0
0.13
0.36
0.66
1.01
1.37
1.72
2.06
2.4
2.79
3.24
3.8
4.42
5.06
5.66
6.2
6.68
7.15
7.68
8.31
9.14
10.09
11.04
11.88
12.56
13.14
13.76
14.65
15.96
17.91
20.32
22.9
25.38
27.58
29.57
31.68
34.32
37.81
42.54
48.15
54.1
59.83
64.97
69.58
74.14
79.34
85.71
93.76
103
112.62
121.73
129.77
136.75
143.3
150.75
157.77
166.64
177.95
191.79
206.97
220.57
228.25
225.36
208.53
176.87
132.76
80.05
23.07
-34.94
-92.44
-149.16
-205.23
-260.37
-313.74
-363.87
-409.83
-450.91
-486.5
-515.74
-537.23
-549.22
-549.96
-538.37
-514.21
-478.67
-433.88
-382.45
-327.02
-269.84
-212.63
-156.66
-102.95
-52.37
-5.9
35.58
71.43
101.35
125.5
144.38
158.69
169.15
176.37
180.75
182.57
182.07
179.51
175.23
169.65
163.18
156.15
148.81
141.3
133.69
126.02
118.33
110.69
103.16
95.8
88.68
81.83
75.25
68.95
62.95
57.25
51.86
46.78
42.03
37.59
33.45
29.61
26.07
22.81
19.83
17.11
14.67
12.48
10.54
8.83
7.35
6.07
4.97
4.05
3.27
2.62
2.09
1.65
1.3
1.01
0.79
0.61
0.47
0.37
0.29
0.23
0.19
0.16
0.14
0.14
0.15
0.16
0.18
0.21
0.24
0.28
0.31
0.36
0.4
0.45
0.5
0.54
0.59
0.65
0.71
0.76
0.83
0.9
0.98
1.06
1.16
1.26
1.38
1.51
1.66
1.83
2.01
2.22
2.45
2.7
2.97
3.28
3.62
3.99
4.39
4.83
5.31
5.82
6.38
6.97
7.6
8.28
9.01
9.77
10.59
11.45
12.35
13.3
14.31
15.37
16.5
17.7
18.94
20.23
21.5
22.7
23.75
24.54
24.96
24.86
24.16
22.76
20.63
17.78
14.28
10.22
5.8
1.2
-3.36
-7.67
-11.54
-14.81
-17.38
-19.21
-20.3
-20.67
-20.43
-19.7
-18.57
-17.16
-15.55
-13.79
-11.95
-10.04
-8.02
-5.96
-3.87
-1.73
0.45
2.71
5.03
7.44
9.9
12.47
15
17.44
19.83
22.23
24.73
27.45
30.41
33.67
37.14
40.45
43.56
46.61
49.82
53.39
57.38
61.81
66.65
71.75
76.57
80.98
85.16
89.46
94.19
99.55
105.47
111.78
117.85
122.64
125.8
127.63
128.69
129.21
128.86
126.45
119.71
109.48
95.06
76.86
56.54
36.27
17.72
1.67
-12.1
-24.66
-39.58
-59.87
-85.67
-114.35
-142.39
-167.24
-187.89
-204.73
-219.19
-236.56
-261.06
-293.6
-331.88
-372.33
-411.66
-445.81
-469.32
-476.58
-468.42
-448.15
-420.35
-389.37
-359.32
-334.19
-315.1
-299.44
-254.76
-166.67
-44.62
83.94
194.65
277.71
333.47
367.41
386.24
394.8
391.35
374.82
346.32
310.7
273.79
237.32
200.75
163.14
121.67
68.72
3.22
-74.23
-159.78
-234.28
-283.59
-303.21
-297.83
-278.07
-255.44
-236.59
-224.01
-216.61
-212.17
-211.14
-220.6
-235.6
-250.3
-259.55
-258.57
-245.26
-220.25
-187.03
-152.39
-122.33
-98.53
-80.35
-67.28
-57.77
-50.56
-44.76
-39.66
-35.67
-32.92
-29.95
-25.87
-19.91
-11.71
-2.24
6.6
12.76
14.43
11.41
5.95
0.83
-1.37
0.74
6.58
14.21
21.62
27.64
32.49
37.69
44.48
53.34
63.83
74.79
84.99
93.79
101.37
108.59
116.77
126.82
139.08
153.28
168.55
183.91
198.65
212.58
226.12
240.05
255.22
272.48
292.68
316.59
344.45
375.24
406.07
432.4
449.1
452.28
440.76
416.59
384.11
348.21
312.68
279.43
248.78
220.46
194.39
170.81
150
131.77
115.37
99.82
84.43
69.12
54.34
40.84
29.25
19.81
12.24
5.91
0.01
-6.05
-12.48
-19.02
-25.14
-30.25
-33.96
-36.21
-37.36
-37.97
-38.62
-39.73
-41.33
-43.13
-44.7
-45.43
-44.95
-43.31
-41
-38.63
-36.76
-35.52
-34.79
-34.3
-33.39
-31.64
-29.04
-26.03
-23.21
-21.28
-20.43
-20.62
-21.62
-22.12
-20.95
-17.72
-13.07
-8.2
-4.7
-3.04
-3.22
-4.8
-5.64
-4.02
0.48
6.59
12.14
14.35
11.88
3.89
-10.05
-27.9
-47.11
-65.42
-81.19
-93
-100.34
-102.16
-98.9
-104.1
-126.36
-165.93
-214.44
-261.41
-295.37
-318.7
-334.81
-346.23
-354.19
-357.98
-356.05
-347.98
-335.2
-320.04
-305.41
-291.99
-279.53
-267.17
-252.29
-232.58
-207.26
-177.49
-145.55
-114.35
-85.11
-58.1
-32.85
-7.39
20.28
51.14
84.74
119.71
154.13
187.1
218.37
248.26
277.94
308.84
342.31
379.46
421.02
466.58
514.21
559.64
596.73
619.26
622.84
606.3
572.01
524.71
469.66
411.28
352.53
295.3
241.29
192.4
150.47
116.56
90.42
70.47
54.36
39.78
25.06
9.46
-6.9
-23.54
-39.97
-55.96
-71.53
-86.74
-101.46
-115.32
-127.83
-138.74
-148.34
-157.37
-166.51
-175.52
-182.81
-185.61
-180.97
-167.22
-144.95
-117.28
-88.88
-64.52
-47.56
-39.28
-38.93
-44.55
-53.82
-64.76
-75.79
-85.62
-93.03
-97
-97.01
-93.49
-87.84
-82.09
-78.27
-77.62
-80.23
-85.05
-90.44
-94.86
-97.48
-98.32
-97.98
-97.2
-96.45
-95.78
-94.89
-93.38
-91.03
-87.86
-84.18
-80.39
-76.8
-73.57
-70.6
-67.64
-64.42
-60.85
-56.96
-53.01
-49.29
-46.01
-43.21
-40.79
-38.57
-36.38
-34.21
-32.1
-30.14
-28.33
-26.58
-24.77
-22.76
-20.53
-18.16
-15.85
-13.76
-12
-10.47
-9
-7.33
-5.32
-3
-0.61
1.48
2.92
3.49
3.23
2.38
1.29
0.32
-0.34
-0.63
-0.65
-0.52
-0.31
-0.02
0.42
1.09
2.03
3.13
4.27
5.27
6.07
6.72
7.38
8.22
9.36
10.76
12.25
13.57
14.51
14.98
15.07
14.97
14.95
15.18
15.72
16.5
17.36
18.09
18.55
18.7
18.69
18.86
19.64
21.38
24.09
27.25
29.88
30.82
29.15
24.61
17.55
8.78
-0.9
-10.98
-21.35
-32.17
-43.56
-55.45
-67.4
-78.58
-87.73
-93.38
-94.22
-89.59
-80.05
-67.6
-55.31
-46.53
-43.71
-47.66
-57.24
-69.82
-82.32
-92.16
-97.9
-99.38
-97.38
-93.11
-87.7
-81.86
-75.77
-69.07
-61.18
-51.72
-40.92
-29.87
-20.4
-14.46
-13.37
-17.06
-23.92
-31.17
-35.64
-34.79
-27.71
-15.81
-3.03
4.65
0.62
-20.27
-59.48
-113.56
-174.73
-233.2
-280.34
-311.12
-324.96
-324.45
-313.28
-294.42
-269.7
-240.4
-208.34
-176.25
-147.14
-123.19
-104.79
-90.58
-78.44
-66.7
-55.06
-44.49
-36.57
-32.48
-32.38
-35.37
-39.95
-44.79
-49.26
-53.61
-58.63
-65.18
-73.62
-83.59
-94.12
-104.1
-112.68
-119.59
-125
-129.25
-132.43
-134.16
-133.63
-129.9
-122.34
-110.93
-96.18
-78.91
-59.85
-39.37
-17.34
6.65
33.13
62.59
95.27
130.89
168.25
205.01
237.91
263.57
279.8
286.46
285.76
281.28
276.48
273.33
271.81
270.43
267.39
261.66
253.33
243.25
232.25
220.7
208.46
195.3
181.35
167.19
153.74
141.85
131.96
123.98
117.49
111.98
107.13
102.92
99.44
96.72
94.4
91.75
87.88
82.13
74.35
65.05
55.21
45.85
37.62
30.56
24.1
17.39
9.59
0.29
-10.34
-21.43
-31.66
-39.39
-43.17
-42.01
-35.71
-24.89
-10.81
4.95
20.98
36.19
49.9
61.77
71.56
79.09
84.23
87.03
87.8
87.13
85.74
84.33
83.36
82.98
83.05
83.23
83.16
82.49
81.08
78.91
76.11
72.86
69.29
65.43
61.19
56.5
51.31
45.73
39.99
34.31
28.79
23.35
17.78
11.81
5.22
-2.13
-10.28
-19.25
-28.98
-39.1
-48.93
-57.37
-63.11
-64.99
-62.41
-55.49
-45.12
-32.61
-19.31
-6.26
5.92
16.93
26.59
34.69
40.99
45.35
47.86
48.93
49.17
49.18
49.34
49.74
50.19
50.43
50.23
49.59
48.63
47.47
46.15
44.55
42.41
39.52
35.76
31.21
26.08
20.66
15.18
9.74
4.3
-1.28
-7.17
-13.54
-20.54
-28.29
-36.85
-46.13
-55.72
-64.87
-72.43
-77.21
-78.2
-74.93
-67.64
-57.14
-44.52
-30.83
-16.88
-3.19
9.87
21.93
32.53
41.21
47.67
51.89
54.2
55.08
55.08
54.55
53.66
52.38
50.7
48.69
46.49
44.25
42
39.58
36.67
32.91
28.08
22.21
15.65
8.9
2.51
-3.04
-7.51
-10.87
-13.29
-15.14
-16.88
-18.96
-21.72
-25.27
-29.53
-34.39
-39.81
-45.9
-52.6
-59.31
-64.54
-66.17
-62.16
-51.65
-35.6
-16.7
1.71
17.06
28.65
37.78
46.92
58.53
74.23
94.64
119.45
147.32
175.43
199.3
213.37
212.7
195.14
162.69
121.05
77.6
38.57
7.17
-16.58
-34.36
-47.63
-56.61
-60.51
-58.82
-52.36
-43.5
-35.19
-29.75
-28
-29.12
-31.46
-33.5
-34.57
-35.05
-35.91
-38.11
-42
-47.2
-52.84
-58.12
-62.64
-66.64
-70.58
-74.77
-78.86
-81.82
-82.24
-78.92
-71.31
-59.84
-45.7
-30.43
-15.37
-1.39
11.17
22.33
32.26
41.01
48.54
54.66
59.25
62.29
63.97
64.62
64.65
64.37
63.96
63.46
62.85
62.1
61.26
60.38
59.45
58.37
56.94
54.92
52.14
48.62
44.55
40.23
36
32.1
28.53
25.12
21.59
17.7
13.46
9.07
4.86
1.05
-2.34
-5.6
-9.18
-13.58
-19.15
-26.12
-34.53
-44.2
-54.62
-64.77
-73.22
-78.41
-79.14
-74.98
-66.41
-54.64
-41.17
-27.37
-14.27
-2.49
7.55
15.58
21.43
25.11
26.88
27.21
26.63
25.61
24.42
23.12
21.64
19.92
17.95
15.88
13.94
12.36
11.3
10.71
10.39
10.01
9.24
7.86
5.83
3.24
0.28
-2.83
-5.97
-9.12
-12.35
-15.74
-19.41
-23.33
-27.44
-31.6
-35.68
-39.6
-43.34
-47.02
-50.83
-54.99
-59.65
-64.79
-70.02
-74.6
-77.5
-77.74
-74.65
-68.19
-58.89
-47.74
-35.88
-24.29
-13.66
-4.44
3.15
8.97
13.02
15.48
16.65
17.01
16.95
16.77
16.6
16.45
16.38
16.47
16.81
17.44
18.2
18.81
18.93
18.28
16.77
14.5
11.69
8.59
5.39
2.16
-1.15
-4.64
-8.37
-12.38
-16.52
-20.63
-24.54
-28.17
-31.58
-34.99
-38.67
-42.91
-47.9
-53.66
-59.95
-66.23
-71.67
-75.22
-75.91
-73.08
-66.64
-57.11
-45.49
-32.95
-20.47
-8.7
2.1
11.84
20.47
27.82
33.68
37.88
40.47
41.7
42
41.78
41.27
40.55
39.6
38.42
37.18
36.08
35.31
34.82
34.31
33.3
31.38
28.36
24.41
19.95
15.44
11.27
7.52
4.11
0.78
-2.73
-6.62
-10.98
-15.74
-20.71
-25.61
-30.18
-34.31
-38.11
-41.91
-46.15
-51.17
-57.01
-63.26
-69.06
-73.29
-74.78
-72.71
-66.81
-57.49
-45.72
-32.76
-19.79
-7.63
3.3
12.92
21.35
28.62
34.68
39.39
42.69
44.63
45.46
45.52
45.19
44.76
44.4
44.23
44.29
44.56
45.01
45.48
45.77
45.6
44.76
43.13
40.71
37.53
33.68
29.17
23.96
17.89
10.77
2.41
-7.2
-17.65
-28.12
-37.32
-43.9
-46.94
-46.37
-43.08
-38.64
-34.81
-32.85
-33.31
-35.9
-39.86
-44.23
-48.12
-50.74
-51.44
-49.7
-45.25
-38.28
-29.44
-19.84
-10.64
-2.79
3.28
7.75
11.15
14.12
17.12
20.27
23.43
26.42
29.12
31.57
33.85
35.99
37.93
39.49
40.58
41.15
41.25
40.92
40.12
38.72
36.54
33.51
29.69
25.31
20.72
16.25
12.19
8.65
5.56
2.69
-0.31
-3.73
-7.68
-12.05
-16.49
-20.62
-24.17
-27.12
-29.77
-32.49
-35.68
-39.55
-44.02
-48.68
-52.81
-55.46
-55.73
-53.06
-47.36
-39.12
-29.31
-19.02
-9.24
-0.68
6.3
11.6
15.27
17.42
18.25
18.01
17.05
15.69
14.25
13.01
12.14
11.75
11.85
12.36
13.1
13.91
14.62
15.04
15.01
14.31
12.78
10.39
7.29
3.83
0.45
-2.53
-5.01
-7.17
-9.37
-11.89
-14.81
-18
-21.17
-24.09
-26.67
-29.03
-31.39
-34.03
-37.21
-41.09
-45.62
-50.43
-54.73
-57.47
-57.6
-54.39
-47.82
-38.54
-27.77
-16.79
-6.64
2.18
9.6
15.78
20.88
24.87
27.62
29.07
29.35
28.82
27.95
27.15
26.63
26.39
26.28
26.15
25.9
25.45
24.78
23.83
22.58
21.04
19.28
17.39
15.44
13.41
11.19
8.64
5.62
2.13
-1.73
-5.69
-9.45
-12.69
-15.25
-17.17
-18.79
-20.7
-23.57
-27.99
-34.11
-41.58
-49.44
-56.39
-61.07
-62.51
-60.4
-55.09
-47.44
-38.45
-29
-19.68
-10.84
-2.64
4.84
11.51
17.29
22.11
25.88
28.55
30.12
30.75
30.78
30.62
30.69
31.29
32.45
34.02
35.68
37.04
37.7
37.36
35.86
33.22
29.7
25.69
21.61
17.81
14.45
11.44
8.53
5.42
1.86
-2.23
-6.75
-11.43
-15.99
-20.26
-24.25
-28.16
-32.31
-37
-42.35
-48.23
-54.13
-59.2
-62.41
-62.79
-59.73
-53.25
-43.96
-32.91
-21.27
-9.94
0.58
10.2
19
27.03
34.1
39.83
43.78
45.65
45.43
43.49
40.48
37.12
34.02
31.47
29.46
27.82
26.36
25.03
23.9
23.06
22.49
21.94
21.01
19.32
16.7
13.31
9.6
6.18
3.54
1.88
0.97
0.36
-0.53
-2
-4.05
-6.38
-8.61
-10.59
-12.47
-14.67
-17.69
-21.88
-27.28
-33.6
-40.26
-46.49
-51.35
-53.91
-53.44
-49.65
-42.77
-33.59
-23.16
-12.58
-2.65
6.15
13.66
19.88
24.83
28.49
30.81
31.76
31.47
30.2
28.32
26.24
24.28
22.62
21.25
20.1
19.01
17.88
16.63
15.23
13.63
11.79
9.64
7.16
4.34
1.24
-2.05
-5.4
-8.75
-12.1
-15.48
-18.93
-22.41
-25.79
-28.94
-31.85
-34.69
-37.85
-41.73
-46.56
-52.2
-58.11
-63.38
-67
-68.06
-65.99
-60.75
-52.74
-42.82
-32.03
-21.35
-11.54
-3.04
3.97
9.45
13.38
15.74
16.64
16.31
15.18
13.73
12.34
11.15
10.05
8.75
6.97
4.56
1.57
-1.75
-4.93
-7.41
-8.57
-8.02
-5.67
-1.95
2.31
6.14
8.69
9.5
8.58
6.25
2.97
-0.92
-5.16
-9.65
-14.35
-19.29
-24.59
-30.44
-36.91
-43.82
-50.65
-56.59
-60.76
-62.55
-61.9
-59.28
-55.55
-51.68
-48.55
-46.89
-47.43
-50.9
-57.95
-68.73
-82.54
-97.64
-111.46
-121.19
-124.3
-119
-104.33
-80.13
-47.14
-7.37
35.68
77.14
111.71
135.01
144.85
141.71
128.26
108.17
84.86
60.84
37.68
16.47
-1.92
-16.83
-28.13
-36.42
-42.85
-48.62
-54.41
-60.11
-65.11
-68.74
-70.79
-71.64
-71.98
-72.27
-72.32
-71.27
-67.95
-61.43
-51.55
-39.03
-25.14
-11.23
1.72
13.31
23.57
32.71
40.77
47.62
52.98
56.56
58.22
57.99
56.16
53.19
49.71
46.31
43.47
41.39
39.95
38.82
37.55
35.73
33.07
29.48
25.07
20.12
15.01
10.1
5.59
1.5
-2.45
-6.63
-11.44
-17.09
-23.52
-30.38
-37.19
-43.5
-49.09
-54.05
-58.7
-63.44
-68.5
-73.73
-78.51
-81.88
-82.84
-80.79
-75.77
-68.51
-60.18
-51.87
-44.1
-36.58
-28.18
-17.35
-2.54
17.19
41.75
69.7
98.46
124.78
145.57
158.77
163.83
161.76
154.42
143.86
131.63
118.57
105.09
91.58
78.69
67.23
57.81
50.49
44.77
39.83
34.91
29.65
24.22
19.05
14.57
10.89
7.7
4.49
0.85
-3.27
-7.52
-11.28
-14
-15.42
-15.73
-15.54
-15.69
-17
-20.03
-24.88
-31.17
-38.08
-44.58
-49.72
-52.93
-54.04
-53.29
-51.05
-47.69
-43.41
-38.33
-32.61
-26.53
-20.57
-15.28
-11.15
-8.5
-7.44
-7.85
-9.46
-11.83
-14.47
-16.9
-18.72
-19.8
-20.29
-20.44
-20.46
-20.11
-18.67
-14.91
-7.6
4.06
19.99
39.2
60.15
81.23
101.18
119.22
134.85
147.64
157.16
163.12
165.59
165.18
162.8
159.31
155.06
149.71
142.4
132.34
119.38
104.39
89.09
75.55
65.42
59.33
56.72
56.09
55.59
53.67
49.45
42.86
34.42
24.99
15.49
6.73
-0.73
-6.66
-11.17
-14.61
-17.43
-19.98
-22.44
-24.76
-26.82
-28.5
-29.71
-30.46
-30.71
-30.4
-29.44
-27.84
-25.72
-23.35
-21.02
-19.02
-17.49
-16.42
-15.75
-15.42
-15.39
-15.67
-16.22
-17.03
-18.1
-19.51
-21.43
-24.06
-27.54
-31.88
-36.86
-42.14
-47.27
-51.95
-56.04
-59.72
-63.26
-66.91
-70.58
-73.76
-75.74
-75.96
-74.5
-72.24
-70.55
-70.66
-72.99
-76.88
-80.82
-83.03
-82.09
-77.26
-68.48
-56.21
-41.34
-25.1
-9.04
5.25
16.53
24.27
28.81
31.13
32.42
33.65
35.3
37.37
39.61
41.82
44.01
46.46
49.64
54.01
59.73
66.61
74.09
81.44
87.93
92.96
96
96.46
93.71
87.33
77.41
64.81
51.03
37.79
26.41
17.32
10
3.33
-3.81
-12.02
-21.2
-30.64
-39.45
-46.9
-52.6
-56.48
-58.57
-58.87
-57.31
-53.9
-48.87
-42.82
-36.56
-30.97
-26.67
-23.9
-22.5
-21.99
-21.81
-21.44
-20.55
-19.06
-17.11
-15.07
-13.39
-12.46
-12.46
-13.38
-14.96
-16.89
-18.83
-20.58
-22.02
-23.1
-23.86
-24.34
-24.65
-24.94
-25.39
-26.25
-27.65
-29.61
-31.89
-33.96
-35.07
-34.47
-31.65
-26.56
-19.66
-11.73
-3.7
3.64
9.79
14.52
17.87
20
21.11
21.4
21.04
20.22
19.12
17.95
16.87
16.02
15.41
15.02
14.68
14.23
13.54
12.57
11.37
10.08
8.83
7.66
6.56
5.46
4.23
2.77
1.03
-0.98
-3.16
-5.27
-7.07
-8.35
-9.07
-9.45
-10.01
-11.47
-14.39
-18.93
-24.62
-30.35
-34.73
-36.54
-35.25
-31.22
-25.56
-19.72
-14.86
-11.47
-9.27
-7.46
-5.18
-2.1
1.3
3.7
3.49
-0.36
-7.63
-16.51
-23.74
-25.58
-18.95
-2.18
24.82
60.94
104.36
152.44
201.22
245.48
279.36
297.63
297.3
278.28
243.37
197.14
144.77
91.11
41.82
3.74
-15.9
-11.81
16.08
61.6
113.72
159.96
189.84
199.19
190.68
171.34
148.67
126.65
105.9
85.31
63.8
40.07
14.7
-10.36
-33.39
-53.89
-74.49
-98.8
-129.86
-169.2
-217.95
-273.42
-328.74
-374.62
-402.1
-407.49
-391.66
-358.82
-302.74
-225.94
-139.61
-59.29
-1.55
33.55
48.92
48.16
36.67
20.38
2.92
-13.23
-26.85
-37.99
-46.97
-55.67
-64.87
-73.78
-80.93
-86.7
-91.76
-96.61
-101.46
-106.16
-111.69
-118.55
-125.93
-131.85
-134.28
-130.34
-116.79
-91.22
-53.25
-6.24
43.87
90.11
126.22
147.79
153.79
146.53
130.59
111.26
92.7
77.5
66.63
59.7
55.35
52.06
48.59
44.2
38.87
33.11
27.82
24.01
22.52
23.97
28.54
35.78
44.6
53.56
61.49
67.59
71.56
73.42
73.18
70.5
64.65
54.82
40.93
25.42
12.61
7.04
10.84
22.37
37.54
52.17
63.7
71.66
76.06
78.27
78.72
76.9
71.84
62.66
48.77
29.52
4.07
-25.54
-57.31
-88.63
-116.29
-137
-148.5
-150.41
-144.39
-133.41
-120.36
-107.51
-95.96
-85.91
-77.14
-69.45
-62.63
-56.34
-49.98
-42.81
-34.62
-25.76
-17.03
-9.25
-3.06
1.38
4.28
5.99
7.01
7.6
7.96
8.19
8.32
8.11
7.2
5.13
1.6
-3.35
-9.37
-15.74
-21.57
-25.89
-27.99
-27.44
-24.28
-19.02
-12.48
-5.66
0.54
5.6
9.34
11.86
13.36
13.96
13.72
12.66
10.87
8.52
5.86
3.11
0.44
-2.04
-4.16
-5.69
-6.35
-5.87
-4.21
-1.56
1.66
4.91
7.71
9.73
10.87
11.23
10.97
10.27
9.18
7.66
5.68
3.21
0.35
-2.74
-5.86
-8.92
-12.01
-15.34
-19.21
-23.88
-29.47
-35.8
-42.41
-48.5
-53.09
-55.2
-54.15
-49.8
-42.51
-33.07
-22.37
-11.26
-0.37
9.76
18.64
25.74
30.68
33.34
34.1
33.63
32.79
32.18
31.97
31.82
31
28.76
24.75
19.26
13.2
7.73
3.8
1.63
0.5
-1.07
-4.63
-11.08
-20.15
-30.43
-40.01
-47.17
-51.2
-52.69
-53.46
-56
-62.44
-73.52
-87.95
-102.08
-110.49
-107.31
-88.61
-54.46
-9.72
37.06
76.44
101.08
108.22
100.48
84.69
69.18
60.67
62.27
72.96
88.39
102.02
107.23
99.39
77.79
45.83
9.95
-22.38
-44.85
-53.81
-49.11
-34.71
-18.41
-7.26
-3.84
-6.71
-13.22
-21.42
-28.91
-34.74
-37.04
-33.17
-20.85
0.16
27.1
55.12
76.71
86.77
83.77
70.19
51.2
32.54
18.25
9.38
4.4
0.77
-3.14
-7.86
-12.83
-17.26
-20.69
-23.39
-26.19
-30.04
-35.32
-41.28
-46.53
-49.43
-48.71
-43.92
-35.55
-24.91
-13.63
-3.09
6.09
13.77
20.18
25.5
29.78
32.89
34.71
35.26
34.77
33.66
32.35
31.08
29.94
28.91
27.92
26.96
26.08
25.34
24.81
24.47
24.17
23.67
22.73
21.18
19.05
16.47
13.73
11.11
8.82
6.79
4.82
2.58
-0.11
-3.19
-6.38
-9.3
-11.57
-13.14
-14.26
-15.45
-17.28
-20.09
-23.98
-28.59
-33.28
-36.88
-38.28
-36.64
-31.78
-24.16
-14.77
-4.82
4.62
12.86
20.12
26.83
33.29
39.34
44.43
48.02
49.76
49.73
48.33
46.9
46.57
47.92
50.68
53.94
56.71
58.22
58.24
57.04
56.33
57.63
62.22
70.49
81.73
94.36
106.06
114.23
110.91
91.71
57.64
16.52
-21.52
-49.29
-64.81
-70.39
-70.46
-69.82
-71.81
-79.18
-92.75
-111.42
-131.88
-148.89
-156.81
-151.78
-133.59
-100.89
-60.65
-22.96
4.15
18.26
22.35
21.67
20.63
21.55
25.92
33.09
42.66
53.62
63.83
70.39
70.8
64.16
51.67
36.28
20.3
6.63
-3
-8.38
-10.46
-10.54
-9.72
-8.71
-7.82
-7.55
-7.72
-7.96
-7.79
-6.99
-5.65
-4.24
-3.53
-4.29
-7.38
-12.98
-20.72
-29.62
-38.29
-45.27
-49.45
-50.46
-48.77
-45.55
-42.02
-39.12
-37.16
-35.84
-34.46
-32.32
-28.96
-24.29
-18.49
-11.85
-4.66
2.83
10.38
17.58
23.82
28.38
30.88
31.5
31.1
30.77
31.32
32.75
34.25
34.64
33.02
29.3
24.22
18.88
14.24
10.67
7.92
5.45
2.67
-0.7
-4.71
-9.14
-13.57
-17.47
-20.25
-21.5
-21.13
-19.55
-17.57
-16.15
-16.09
-17.67
-20.61
-24.26
-27.86
-30.81
-32.92
-34.25
-35.02
-35.5
-35.87
-36.26
-36.73
-37.22
-37.49
-37.12
-35.58
-32.42
-27.51
-21.09
-13.75
-6.25
0.72
6.64
11.18
14.24
15.85
16.26
15.81
14.93
13.97
13.16
12.53
12.03
11.6
11.3
11.26
11.6
12.31
13.22
14.01
14.29
13.88
12.74
11.06
9.12
7.13
5.19
3.28
1.27
-0.95
-3.42
-6.07
-8.75
-11.28
-13.58
-15.63
-17.54
-19.51
-21.78
-24.5
-27.69
-31.11
-34.25
-36.37
-36.72
-34.74
-30.3
-23.71
-15.71
-7.2
0.95
8.17
14.22
19.13
23.12
26.36
28.95
30.86
32.05
32.53
32.46
32.08
31.72
31.59
31.76
32.11
32.37
32.3
31.77
30.8
29.57
28.31
27.15
26.12
25.1
24.02
22.99
22.3
22.29
23.02
23.96
23.88
21.1
13.88
0.82
-18.83
-45
-76.74
-112.1
-147.92
-179.94
-203.28
-213.42
-207.45
-185
-148.67
-103.48
-55.66
-11.24
25.2
51.21
66.46
72.32
71.18
65.73
58.43
51.22
45.35
41.42
39.4
38.89
39.22
39.71
39.84
39.36
38.35
37.1
35.94
35.14
34.74
34.57
34.24
33.33
31.52
28.78
25.39
21.85
18.67
16.13
14.17
12.36
10.19
7.29
3.66
-0.32
-4.14
-7.36
-9.9
-11.98
-14.05
-16.52
-19.64
-23.49
-27.93
-32.69
-37.3
-41.13
-43.42
-43.44
-40.77
-35.47
-28.14
-19.72
-11.19
-3.26
3.69
9.61
14.52
18.41
21.24
22.99
23.81
24.02
24.02
24.17
24.61
25.3
26.05
26.67
27.09
27.29
27.33
27.23
26.95
26.35
25.3
23.66
21.43
18.71
15.73
12.73
9.92
7.37
5
2.66
0.23
-2.34
-4.96
-7.52
-9.91
-12.1
-14.15
-16.2
-18.52
-21.42
-25.2
-29.97
-35.47
-41.01
-45.56
-48.12
-48.06
-45.36
-40.62
-34.8
-28.87
-23.49
-18.96
-15.27
-12.37
-10.27
-9.14
-9.17
-10.53
-13.16
-16.79
-20.96
-25.17
-28.98
-32.17
-34.8
-37.1
-39.31
-41.54
-43.66
-45.4
-46.55
-47.09
-47.14
-46.81
-46.03
-44.59
-42.26
-38.99
-34.92
-30.12
-24.34
-16.93
-7.09
5.55
20.45
36.15
50.72
62.45
70.48
74.85
76.2
75.21
72.37
68.06
62.78
57.49
53.46
51.9
53.53
58.19
64.95
72.42
79.26
84.57
88.07
89.93
90.53
90.17
88.98
86.96
84.1
80.47
76.3
71.91
67.59
63.56
59.88
56.44
53.12
49.78
46.33
42.81
39.23
35.61
31.89
27.95
23.74
19.32
14.91
10.84
7.39
4.66
2.44
0.3
-2.29
-5.67
-9.95
-14.92
-20.25
-25.6
-30.75
-35.7
-40.56
-45.5
-50.65
-56.08
-61.67
-67.12
-71.83
-75.05
-76.01
-74.19
-69.55
-62.56
-54.03
-44.92
-36.08
-28.14
-21.46
-16.24
-12.47
-9.99
-8.45
-7.38
-6.31
-4.91
-3.06
-0.81
1.65
4.19
6.72
9.26
11.89
14.65
17.45
20.14
22.46
24.16
25.14
25.42
25.14
24.49
23.57
22.38
20.81
18.76
16.18
13.11
9.71
6.12
2.45
-1.2
-4.86
-8.54
-12.39
-16.62
-21.5
-27.2
-33.61
-40.28
-46.36
-50.8
-52.65
-51.4
-47.16
-40.62
-32.81
-24.76
-17.17
-10.44
-4.68
0
3.46
5.48
5.9
4.77
2.37
-0.83
-4.32
-7.64
-10.46
-12.61
-14.02
-14.71
-14.75
-14.23
-13.25
-11.81
-9.88
-7.33
-4.05
0.04
4.91
10.42
16.36
22.47
28.51
34.28
39.63
44.48
48.81
52.63
55.95
58.74
60.9
62.28
62.65
61.83
59.58
55.69
50.06
42.81
34.42
25.81
18.12
12.47
9.46
8.96
10.12
11.68
12.5
11.92
9.96
7.1
3.92
0.74
-2.48
-6.01
-10.08
-14.54
-18.86
-22.2
-23.81
-23.25
-20.7
-16.85
-12.66
-9.08
-6.63
-5.36
-4.81
-4.27
-3.16
-1.27
1.04
3.05
3.98
3.37
1.28
-1.63
-4.21
-5.03
-2.49
4.86
17.6
34.7
52.94
67.51
73.53
68.29
52.79
31.73
11.78
-1.15
-4.19
1.75
12.93
24.57
32.43
33.44
25.76
8.64
-17.27
-49.51
-83.83
-115.03
-138.59
-152.11
-155.86
-152.11
-143.56
-131.88
-116.94
-97.39
-71.99
-40.94
-6.53
27.33
56.34
77.28
88.88
91.88
88.32
80.52
70.35
59.02
47.29
35.81
25.27
16.27
9.08
3.41
-1.51
-6.54
-12.31
-18.98
-26.19
-33.36
-39.96
-45.73
-50.69
-54.99
-58.64
-61.34
-62.53
-61.61
-58.21
-52.41
-44.8
-36.23
-27.64
-19.74
-12.93
-7.3
-2.79
0.7
3.24
4.9
5.7
5.77
5.28
4.48
3.65
3.04
2.9
3.36
4.45
6.02
7.81
9.44
10.57
10.95
10.53
9.44
7.9
6.11
4.23
2.32
0.36
-1.68
-3.87
-6.25
-8.81
-11.48
-14.14
-16.6
-18.72
-20.5
-22.13
-23.96
-26.39
-29.6
-33.36
-36.94
-39.3
-39.4
-36.68
-31.21
-23.71
-15.26
-6.89
0.76
7.48
13.4
18.71
23.45
27.47
30.52
32.38
33.05
32.71
31.74
30.52
29.34
28.33
27.5
26.79
26.17
25.66
25.31
25.12
25
24.75
24.17
23.09
21.53
19.64
17.67
15.84
14.22
12.7
11.07
9.12
6.77
4.11
1.34
-1.31
-3.74
-5.98
-8.16
-10.47
-13.07
-16.12
-19.74
-23.99
-28.74
-33.53
-37.59
-39.98
-39.89
-36.94
-31.38
-24.01
-15.87
-7.95
-0.86
5.2
10.3
14.62
18.26
21.19
23.33
24.62
25.14
25.05
24.58
23.99
23.44
23.01
22.7
22.47
22.28
22.16
22.14
22.21
22.3
22.25
21.85
20.97
19.6
17.87
15.97
14.06
12.24
10.48
8.67
6.67
4.39
1.83
-0.93
-3.74
-6.45
-8.95
-11.24
-13.41
-15.68
-18.3
-21.47
-25.3
-29.63
-34.06
-37.88
-40.22
-40.27
-37.59
-32.24
-24.86
-16.43
-7.98
-0.29
6.3
11.8
16.36
20.09
22.92
24.73
25.4
25.07
24.05
22.76
21.58
20.69
20.07
19.57
19.1
18.64
18.28
18.09
18.06
18.01
17.67
16.78
15.24
13.12
10.69
8.26
6.1
4.31
2.76
1.22
-0.55
-2.68
-5.1
-7.61
-10.02
-12.18
-14.1
-15.89
-17.7
-19.71
-22.1
-25.02
-28.49
-32.3
-35.91
-38.45
-39.02
-36.97
-32.17
-25.14
-16.86
-8.43
-0.69
5.87
11.16
15.28
18.33
20.36
21.39
21.51
20.93
19.97
18.98
18.18
17.67
17.36
17.1
16.77
16.32
15.81
15.29
14.75
14.11
13.19
11.87
10.15
8.13
6
3.92
1.98
0.13
-1.74
-3.74
-5.9
-8.21
-10.55
-12.79
-14.85
-16.71
-18.5
-20.42
-22.73
-25.64
-29.24
-33.41
-37.73
-41.57
-44.13
-44.67
-42.66
-38.02
-31.17
-22.85
-13.98
-5.36
2.44
9.15
14.71
19.15
22.53
24.92
26.46
27.33
27.73
27.87
27.88
27.78
27.49
26.93
26.02
24.84
23.56
22.43
21.58
21.01
20.46
19.61
18.16
16.03
13.36
10.52
7.85
5.59
3.76
2.14
0.44
-1.61
-4.11
-6.98
-9.99
-12.86
-15.37
-17.46
-19.3
-21.17
-23.46
-26.47
-30.29
-34.68
-39.06
-42.59
-44.41
-43.87
-40.73
-35.22
-27.97
-19.82
-11.56
-3.83
3.07
8.97
13.84
17.68
20.47
22.27
23.21
23.55
23.54
23.41
23.26
23.06
22.74
22.25
21.62
20.99
20.47
20.17
20.06
20.05
19.95
19.57
18.7
17.23
15.17
12.68
10.05
7.57
5.45
3.67
2.02
0.17
-2.09
-4.78
-7.7
-10.53
-12.98
-15
-16.74
-18.5
-20.6
-23.3
-26.72
-30.78
-35.13
-39.18
-42.08
-42.97
-41.2
-36.57
-29.47
-20.76
-11.48
-2.6
5.22
11.62
16.46
19.72
21.39
21.55
20.44
18.46
16.1
13.84
11.99
10.67
9.78
9.16
8.62
8.09
7.58
7.19
6.99
7.05
7.3
7.61
7.75
7.54
6.82
5.56
3.9
2.09
0.4
-0.92
-1.78
-2.23
-2.48
-2.78
-3.38
-4.46
-6.06
-8.13
-10.53
-13.15
-15.88
-18.79
-21.98
-25.57
-29.5
-33.46
-36.81
-38.7
-38.34
-35.27
-29.58
-21.93
-13.31
-4.76
2.96
9.51
14.89
19.26
22.79
25.47
27.25
28.07
28.02
27.34
26.34
25.29
24.33
23.44
22.52
21.51
20.43
19.44
18.66
18.16
17.82
17.4
16.66
15.43
13.72
11.72
9.72
7.9
6.32
4.85
3.23
1.23
-1.24
-4.09
-7.09
-9.97
-12.52
-14.72
-16.7
-18.72
-21.04
-23.86
-27.21
-30.82
-34.14
-36.38
-36.76
-34.71
-30.12
-23.39
-15.35
-7
0.82
7.53
12.95
17.11
20.19
22.37
23.81
24.64
25
25.05
24.94
24.82
24.76
24.79
24.87
24.96
25.01
25.01
24.95
24.76
24.34
23.51
22.15
20.24
17.91
15.37
12.84
10.44
8.16
5.89
3.47
0.8
-2.06
-4.96
-7.67
-10.04
-12.08
-14.01
-16.17
-18.92
-22.43
-26.52
-30.66
-34.07
-35.95
-35.71
-33.15
-28.47
-22.21
-15.1
-7.87
-1.16
4.61
9.2
12.6
14.93
16.39
17.19
17.5
17.47
17.2
16.8
16.37
16.02
15.81
15.78
15.88
16.06
16.2
16.2
15.92
15.28
14.19
12.66
10.76
8.58
6.22
3.75
1.17
-1.53
-4.35
-7.19
-9.92
-12.37
-14.42
-16.09
-17.62
-19.34
-21.61
-24.7
-28.66
-33.33
-38.28
-42.92
-46.55
-48.51
-48.33
-45.87
-41.39
-35.48
-28.9
-22.38
-16.42
-11.26
-6.94
-3.39
-0.56
1.54
2.89
3.47
3.33
2.59
1.45
0.18
-0.89
-1.41
-1.08
0.27
2.56
5.45
8.37
10.66
11.8
11.51
9.92
7.47
4.95
3.35
3.79
7.34
14.58
25.31
38.24
51.26
62.08
69.12
72.09
71.99
70.38
68.39
66.08
62.45
56.18
46.63
34.4
21.25
9.37
0.51
-4.5
-5.71
-3.65
1.15
8.28
17.28
27.37
37.3
45.58
50.86
52.37
50.15
44.96
37.97
30.32
22.89
16.16
10.32
5.37
1.31
-1.89
-4.3
-6.09
-7.52
-8.88
-10.41
-12.23
-14.35
-16.76
-19.52
-22.73
-26.49
-30.77
-35.3
-39.66
-43.36
-46.05
-47.64
-48.26
-48.22
-47.94
-47.86
-48.46
-50.26
-53.74
-59.24
-66.73
-75.68
-85.06
-93.52
-99.68
-102.51
-101.49
-96.75
-88.83
-78.59
-66.91
-54.69
-42.75
-31.86
-22.71
-15.79
-11.38
-9.4
-9.47
-10.95
-13.07
-15.12
-16.61
-17.34
-17.42
-17.17
-16.91
-16.87
-17.04
-17.28
-17.41
-17.38
-17.32
-17.49
-18.24
-19.82
-22.28
-25.41
-28.69
-31.39
-32.68
-31.91
-28.79
-23.53
-16.81
-9.61
-2.93
2.5
6.35
8.88
10.82
13.29
17.42
24
33.11
44.02
55.45
65.99
74.69
81.26
86.01
89.47
91.94
93.36
93.39
91.82
88.87
85.26
81.92
79.64
78.67
78.66
78.87
78.49
76.99
74.22
70.37
65.73
60.5
54.71
48.29
41.21
33.59
25.69
17.87
10.46
3.65
-2.49
-8.01
-13.04
-17.66
-22
-26.13
-30.1
-34.01
-37.93
-41.91
-45.9
-49.63
-52.61
-54.21
-53.83
-51.15
-46.29
-39.84
-32.65
-25.57
-19.16
-13.63
-8.84
-4.54
-0.56
3.05
6.1
8.31
9.55
9.84
9.44
8.68
7.96
7.6
7.83
8.76
10.37
12.44
14.66
16.63
18.07
18.83
18.95
18.59
17.88
16.84
15.37
13.39
10.85
7.93
4.94
2.25
0.08
-1.67
-3.43
-5.89
-9.78
-15.61
-23.38
-32.5
-41.69
-49.22
-53.15
-51.84
-44.47
-31.39
-14.25
4.34
21.43
34.57
42.41
44.91
43.08
38.42
32.37
25.93
19.71
14.08
9.38
5.97
4.07
3.63
4.23
5.16
5.75
5.5
4.31
2.38
0.06
-2.33
-4.64
-6.85
-9.06
-11.35
-13.76
-16.18
-18.41
-20.2
-21.35
-21.83
-21.8
-21.62
-21.68
-22.35
-23.83
-26.09
-28.9
-31.83
-34.34
-35.81
-35.7
-33.64
-29.57
-23.78
-16.88
-9.58
-2.56
3.63
8.68
12.36
14.59
15.37
14.82
13.27
11.16
8.99
7.16
5.88
5.17
4.92
5.04
5.4
5.91
6.4
6.64
6.42
5.64
4.33
2.68
0.87
-1.06
-3.14
-5.53
-8.3
-11.39
-14.57
-17.58
-20.17
-22.25
-23.97
-25.6
-27.46
-29.71
-32.19
-34.35
-35.46
-34.86
-32.27
-27.97
-22.68
-17.28
-12.53
-8.83
-6.29
-4.85
-4.4
-4.83
-6.02
-7.75
-9.79
-11.98
-14.29
-16.86
-19.92
-23.57
-27.74
-32.11
-36.25
-39.75
-42.42
-44.37
-45.98
-47.74
-49.87
-52.22
-54.04
-54.21
-51.62
-45.67
-36.56
-25.32
-13.44
-2.41
6.7
13.48
18.23
22.04
26.72
34.6
47.92
67.97
94.37
124.89
155.96
183.89
206.06
221.57
231.06
235.93
237.39
236.03
231.86
224.84
215.32
204.11
192.3
180.66
169.28
157.53
144.35
128.79
110.56
90.26
69.2
48.8
30.13
13.42
-1.73
-15.96
-29.64
-42.58
-54.14
-63.63
-70.75
-75.87
-79.91
-83.98
-88.97
-95.2
-102.37
-109.73
-116.29
-121.09
-123.38
-122.72
-119.02
-112.58
-104.02
-94.15
-83.84
-73.72
-64.15
-55.18
-46.8
-39.12
-32.46
-27.33
-24.13
-22.95
-23.49
-25.12
-27.15
-29.03
-30.52
-31.55
-32.15
-32.35
-32.14
-31.55
-30.71
-29.83
-29.12
-28.74
-28.74
-29.15
-29.95
-31.13
-32.62
-34.24
-35.74
-36.81
-37.31
-37.34
-37.29
-37.66
-38.87
-41.1
-44.17
-47.66
-51.01
-53.58
-54.69
-53.55
-49.36
-41.53
-29.94
-15.11
1.76
19.17
35.66
50.24
62.5
72.52
80.6
87.04
91.95
95.3
96.94
96.76
94.73
90.96
85.64
79.11
71.85
64.45
57.62
52.03
48.1
45.74
44.39
43.08
40.82
37.05
31.79
25.65
19.39
13.52
8.13
2.9
-2.54
-8.31
-14.17
-19.64
-24.31
-28.07
-31.16
-34
-37.02
-40.41
-44.04
-47.48
-50.08
-51.09
-49.86
-46.05
-39.72
-31.43
-22.05
-12.59
-3.92
3.38
9.05
13.07
15.51
16.48
16.12
14.65
12.37
9.66
6.97
4.68
3.13
2.5
2.77
3.74
5.06
6.31
7.14
7.31
6.73
5.44
3.54
1.11
-1.85
-5.35
-9.34
-13.69
-18.14
-22.41
-26.28
-29.71
-32.88
-36.08
-39.55
-43.33
-47.22
-50.84
-53.7
-55.25
-55.01
-52.61
-47.91
-41.09
-32.77
-23.85
-15.42
-8.37
-3.22
-0.03
1.53
1.96
1.65
0.86
-0.34
-1.98
-4.09
-6.57
-9.24
-11.88
-14.3
-16.4
-18.15
-19.54
-20.48
-20.82
-20.43
-19.34
-17.79
-16.3
-15.43
-15.6
-16.94
-19.21
-21.94
-24.67
-27.06
-29.06
-30.79
-32.49
-34.41
-36.76
-39.71
-43.27
-47.26
-51.18
-54.21
-55.38
-53.88
-49.35
-42.13
-33.1
-23.46
-14.28
-6.29
0.23
5.29
8.95
11.17
11.87
11.02
8.84
5.78
2.48
-0.53
-2.93
-4.73
-6.16
-7.5
-8.91
-10.33
-11.59
-12.5
-13.01
-13.28
-13.6
-14.32
-15.68
-17.75
-20.36
-23.2
-25.88
-28.06
-29.56
-30.5
-31.27
-32.42
-34.44
-37.57
-41.57
-45.73
-49.03
-50.45
-49.28
-45.3
-38.84
-30.64
-21.57
-12.46
-3.95
3.51
9.66
14.32
17.42
19.03
19.41
19
18.27
17.62
17.27
17.21
17.23
17.09
16.62
15.76
14.58
13.17
11.61
9.93
8.04
5.82
3.15
-0.02
-3.65
-7.57
-11.53
-15.32
-18.79
-21.95
-25.03
-28.33
-32.1
-36.33
-40.63
-44.25
-46.33
-46.15
-43.4
-38.21
-31.14
-22.86
-14.01
-5.07
3.67
11.97
19.61
26.31
31.76
35.76
38.26
39.46
39.78
39.76
39.87
40.36
41.17
42.08
42.86
43.47
44.04
44.81
45.9
47.22
48.46
49.23
49.32
48.84
48.2
47.97
48.76
50.95
54.71
59.95
66.36
73.44
80.57
86.95
91.75
94.25
94.18
91.89
88.47
85.42
84.25
85.94
90.73
98.05
106.99
116.61
126.27
135.75
145.04
154.09
162.72
170.6
177.39
182.79
186.52
188.17
187.02
182
172.01
156.4
135.62
111.43
86.7
64.51
47.14
35.28
28.02
23.42
19.56
15.25
10.27
5.06
0.23
-3.83
-6.99
-9.41
-11.42
-13.67
-17.18
-23.16
-32.49
-45.28
-60.51
-76.1
-89.59
-98.79
-102.4
-100.22
-93.02
-82.13
-69.01
-55.02
-41.23
-28.38
-17.02
-7.61
-0.65
3.37
4.09
1.5
-4.01
-11.73
-20.83
-30.65
-40.77
-50.86
-60.52
-69.06
-75.57
-79.27
-79.84
-77.71
-73.96
-69.93
-66.76
-64.99
-64.47
-64.58
-64.63
-64.14
-63.01
-61.43
-59.72
-58.09
-56.64
-55.36
-54.28
-53.56
-53.49
-54.32
-56.12
-58.58
-61.02
-62.55
-62.36
-59.96
-55.4
-49.21
-42.25
-35.4
-29.33
-24.37
-20.54
-17.76
-15.93
-15.01
-14.9
-15.39
-16.06
-16.35
-15.76
-14.07
-11.47
-8.49
-5.76
-3.75
-2.63
-2.3
-2.5
-3.02
-3.81
-4.91
-6.4
-8.27
-10.37
-12.45
-14.3
-15.75
-16.83
-17.67
-18.48
-19.49
-20.86
-22.68
-24.92
-27.46
-30.04
-32.29
-33.78
-34.09
-32.96
-30.31
-26.33
-21.39
-15.93
-10.37
-4.98
0.1
4.79
9.05
12.73
15.68
17.71
18.73
18.77
18
16.73
15.27
13.96
12.96
12.24
11.6
10.63
8.88
6.05
2.05
-2.85
-8.14
-13.22
-17.66
-21.35
-24.53
-27.72
-31.43
-35.95
-41.15
-46.58
-51.56
-55.57
-58.48
-60.72
-63.18
-66.91
-72.71
-80.71
-90.24
-99.98
-108.36
-114.02
-116.3
-115.53
-113.28
-112.34
-116.2
-128.04
-149.34
-178.9
-212.69
-245.15
-270.85
-286.17
-289.91
-282.65
-265.63
-239.77
-205.58
-163.61
-115.11
-62.06
-6.87
48.06
100.51
148.3
189.16
220.96
242.28
252.82
253.48
245.79
231.23
210.87
185.39
155.62
122.94
89.38
57.2
28.28
3.75
-16.12
-31.6
-43.23
-51.53
-56.93
-59.83
-60.65
-59.79
-57.52
-53.94
-48.88
-42.14
-33.59
-23.31
-11.6
1.05
14
26.54
37.91
47.38
54.5
59.17
61.68
62.49
62.03
60.54
58.02
54.41
49.77
44.35
38.44
32.3
25.98
19.39
12.31
4.62
-3.74
-12.66
-21.93
-31.2
-39.96
-47.66
-53.72
-57.7
-59.38
-58.81
-56.2
-51.96
-46.65
-41.03
-36.13
-33.19
-33.49
-37.88
-46.37
-57.78
-69.78
-79.46
-84.12
-82.14
-73.49
-59.66
-43.01
-25.98
-10.32
3.18
14.61
24.52
33.5
41.97
50.13
58
65.49
72.45
78.63
83.76
87.58
89.9
90.74
90.26
88.89
87.2
85.86
85.44
86.26
88.34
91.29
94.45
97.09
98.57
98.47
96.69
93.42
89.03
83.93
78.4
72.58
66.43
59.9
53.06
46.13
39.53
33.64
28.82
25.23
22.94
21.87
21.88
22.68
23.89
25.03
25.72
25.79
25.35
24.76
24.37
24.47
25.11
26.23
27.71
29.45
31.44
33.67
36.07
38.45
40.57
42.15
43.01
43.07
42.4
41.16
39.57
37.82
36.1
34.54
33.17
31.97
30.83
29.56
27.89
25.54
22.3
18.09
13.04
7.47
1.77
-3.7
-8.68
-13.13
-17.16
-20.91
-24.42
-27.48
-29.58
-30.09
-28.37
-24.18
-17.77
-9.89
-1.55
6.32
13.12
18.71
23.26
27.07
30.32
33
34.98
36.14
36.48
36.16
35.48
34.75
34.19
33.82
33.5
32.97
32.02
30.53
28.56
26.28
23.81
21.2
18.37
15.23
11.79
8.25
5.01
2.48
0.97
0.52
0.92
1.72
2.45
2.64
1.9
-0.05
-3.47
-8.51
-15.1
-22.81
-30.85
-38.08
-43.34
-45.75
-44.93
-41.19
-35.28
-28.26
-21.11
-14.56
-9.02
-4.53
-0.92
2.1
4.79
7.35
9.86
12.33
14.75
17.1
19.35
21.45
23.35
24.98
26.31
27.36
28.19
28.88
29.47
29.89
30.01
29.61
28.53
26.62
23.85
20.27
16.03
11.4
6.74
2.41
-1.23
-3.98
-5.82
-6.89
-7.46
-7.88
-8.52
-9.7
-11.65
-14.44
-17.88
-21.54
-24.83
-27.17
-28.14
-27.64
-25.81
-22.97
-19.44
-15.48
-11.33
-7.25
-3.59
-0.71
1.12
1.85
1.67
0.95
0.02
-0.99
-2.27
-4.2
-7.18
-11.37
-16.57
-22.28
-27.89
-32.94
-37.27
-41.1
-44.9
-49.28
-54.69
-61.29
-68.85
-76.81
-84.39
-90.93
-96.06
-99.82
-102.69
-105.26
-108.01
-110.96
-113.52
-114.51
-112.29
-105.27
-92.28
-73.13
-48.7
-20.89
7.98
35.78
61.07
83.21
102.15
118.09
131.09
141.13
148.19
152.51
154.58
155.03
154.3
152.53
149.69
145.73
140.94
136.02
132.04
130.09
130.88
134.44
140.03
146.21
151.38
154.19
154.06
151.48
147.93
145.53
146.46
152.27
163.29
178.36
195.03
210.07
220.21
222.88
216.8
202.29
181.2
156.56
131.81
110.01
93.07
81.32
73.64
68.05
62.51
55.52
46.3
34.51
19.93
2.37
-18.15
-40.99
-64.67
-87.19
-106.66
-121.97
-133.24
-141.73
-149.25
-157.47
-167.32
-178.81
-191.19
-203.44
-214.62
-224.22
-232.09
-238.33
-243.1
-246.45
-248.35
-248.82
-247.99
-246.09
-243.36
-239.88
-235.52
-229.99
-223.04
-214.65
-205.06
-194.75
-184.14
-173.4
-162.35
-150.54
-137.58
-123.36
-108.24
-92.93
-78.3
-65
-53.34
-43.35
-34.96
-28.18
-23.18
-20.1
-18.9
-19.21
-20.44
-21.98
-23.42
-24.64
-25.71
-26.77
-27.87
-28.89
-29.53
-29.36
-27.88
-24.66
-19.59
-12.95
-5.42
2.23
9.45
16.26
23.15
30.72
39.08
47.56
54.78
59.14
59.59
56.06
49.6
42
35.1
30.28
28.05
28.07
29.46
31.03
31.66
30.46
26.94
21.03
13.14
4.08
-4.96
-12.58
-17.36
-18.19
-14.42
-6.15
5.77
20.01
35.01
49.45
62.53
74.02
84.1
93.07
101
107.68
112.67
115.46
115.63
112.97
107.54
99.69
90.08
79.66
69.49
60.61
53.7
48.94
46.04
44.45
43.57
43.04
42.71
42.62
42.8
43.19
43.61
43.81
43.62
42.98
41.9
40.41
38.55
36.36
33.91
31.42
29.12
27.2
25.62
24.22
22.86
21.73
21.55
23.35
28.07
36.01
46.52
58.3
69.89
80.37
89.59
97.9
105.61
112.39
117.26
118.95
116.71
110.76
102.24
92.78
83.76
75.93
69.32
63.5
57.91
52.1
45.74
38.54
30.17
20.41
9.29
-2.82
-15.17
-26.85
-37.04
-45.27
-51.51
-56.18
-60.01
-63.79
-68.17
-73.47
-79.66
-86.48
-93.7
-101.27
-109.37
-118.33
-128.36
-139.32
-150.58
-160.96
-168.92
-172.86
-171.5
-164.24
-151.45
-134.49
-115.46
-96.7
-80.17
-67.01
-57.4
-50.69
-45.85
-41.85
-37.94
-33.74
-29.13
-24.16
-19
-13.85
-9
-4.72
-1.21
1.49
3.45
4.78
5.49
5.33
3.94
1.01
-3.44
-8.98
-14.82
-20.05
-23.94
-26.13
-26.65
-25.85
-24.2
-22.28
-20.66
-19.89
-20.39
-22.24
-25.14
-28.44
-31.41
-33.47
-34.44
-34.49
-33.94
-33.09
-31.98
-30.41
-28.04
-24.55
-19.72
-13.51
-6.05
2.37
11.31
20.23
28.65
36.3
43.27
50.08
57.37
65.66
74.9
84.33
92.61
98.13
99.54
96.01
87.34
73.94
56.6
36.41
14.68
-7.04
-27.03
-43.63
-55.48
-61.84
-62.66
-58.56
-50.53
-39.63
-26.77
-12.63
2.26
17.34
31.94
45.34
56.89
66.29
73.56
79.05
83.12
85.92
87.33
87.08
85
81.27
76.44
71.24
66.27
61.8
57.72
53.71
49.42
44.65
39.38
33.67
27.64
21.37
14.93
8.39
1.87
-4.51
-10.65
-16.48
-21.98
-27.22
-32.35
-37.58
-43.19
-49.36
-56.12
-63.33
-70.73
-78.01
-84.93
-91.32
-97.03
-101.8
-105.2
-106.7
-105.77
-102.15
-95.95
-87.71
-78.31
-68.65
-59.43
-51.03
-43.54
-36.95
-31.32
-26.8
-23.55
-21.58
-20.55
-19.87
-18.86
-17.01
-14.25
-10.88
-7.48
-4.6
-2.63
-1.69
-1.82
-3.02
-5.33
-8.75
-13.04
-17.64
-21.71
-24.39
-25.09
-23.71
-20.62
-16.44
-11.76
-6.83
-1.56
4.37
11.23
19.03
27.48
36.04
44.15
51.37
57.52
62.6
66.71
70
72.58
74.65
76.43
78.24
80.36
82.93
85.76
88.41
90.24
90.72
89.64
87.25
84.06
80.64
77.27
73.8
69.79
64.73
58.47
51.32
44.07
37.72
33.16
30.85
30.69
32
33.69
34.42
32.9
28.13
19.7
7.92
-6.13
-20.84
-34.43
-45.47
-53.28
-58.07
-60.75
-62.49
-64.29
-66.66
-69.58
-72.71
-75.66
-78.16
-80.08
-81.35
-81.83
-81.38
-79.93
-77.6
-74.66
-71.4
-67.97
-64.24
-59.85
-54.46
-47.9
-40.31
-32.16
-24.07
-16.61
-10.22
-5.07
-1.13
1.76
3.87
5.53
7.06
8.71
10.61
12.68
14.71
16.42
17.55
17.99
17.72
16.8
15.32
13.43
11.28
9.11
7.19
5.72
4.75
4.13
3.52
2.57
1.07
-0.97
-3.3
-5.63
-7.66
-9.26
-10.43
-11.25
-11.87
-12.45
-13.11
-13.92
-14.83
-15.56
-15.68
-14.7
-12.22
-8.19
-2.88
3.1
9.07
14.43
18.86
22.25
24.64
26.1
26.73
26.64
26.01
25.2
24.6
24.58
25.28
26.58
28.11
29.4
30.07
29.91
28.92
27.22
25.01
22.49
19.82
17.16
14.7
12.55
10.77
9.3
8.01
6.74
5.4
4.05
2.77
1.62
0.53
-0.69
-2.29
-4.5
-7.36
-10.73
-14.32
-17.72
-20.44
-22.05
-22.16
-20.63
-17.57
-13.42
-8.8
-4.31
-0.41
2.67
4.89
6.34
7.05
7.1
6.53
5.49
4.22
3.05
2.32
2.3
3.09
4.58
6.48
8.38
9.92
10.82
11
10.53
9.56
8.25
6.74
5.14
3.56
2.1
0.82
-0.25
-1.11
-1.79
-2.28
-2.64
-3
-3.55
-4.58
-6.3
-8.76
-11.78
-14.94
-17.65
-19.28
-19.39
-17.74
-14.43
-9.82
-4.43
1.16
6.48
11.13
14.83
17.33
18.44
18.04
16.2
13.21
9.53
5.7
2.16
-0.82
-3.16
-4.93
-6.29
-7.47
-8.69
-10.21
-12.13
-14.41
-16.81
-18.98
-20.59
-21.41
-21.39
-20.52
-18.85
-16.52
-13.78
-11.07
-8.85
-7.44
-6.86
-6.85
-7.14
-7.61
-8.4
-9.71
-11.48
-13.16
-13.9
-12.88
-9.75
-4.87
0.81
6.19
10.43
13.24
14.76
15.35
15.28
14.66
13.48
11.8
9.82
7.9
6.4
5.52
5.2
5.14
5
4.61
4.01
3.37
2.87
2.53
2.19
1.6
0.56
-0.96
-2.82
-4.76
-6.52
-7.99
-9.15
-10.13
-11.12
-12.33
-13.9
-15.93
-18.38
-21.04
-23.51
-25.25
-25.74
-24.61
-21.82
-17.68
-12.74
-7.64
-2.92
1.09
4.27
6.67
8.37
9.44
9.95
9.94
9.52
8.83
8.08
7.48
7.16
7.12
7.26
7.38
7.32
6.96
6.34
5.5
4.51
3.34
1.94
0.25
-1.72
-3.86
-6.05
-8.2
-10.27
-12.32
-14.43
-16.66
-19.04
-21.58
-24.26
-27.03
-29.66
-31.77
-32.84
-32.37
-30.07
-25.99
-20.57
-14.43
-8.33
-2.83
1.69
5.03
7.17
8.13
7.97
6.82
4.8
2.12
-1.01
-4.35
-7.67
-10.79
-13.51
-15.68
-17.21
-18.09
-18.39
-18.24
-17.8
-17.15
-16.26
-15.03
-13.29
-10.83
-7.54
-3.31
1.88
7.98
14.82
22.11
29.46
36.41
42.59
47.72
51.74
54.74
56.93
58.61
60.07
61.66
63.68
66.36
69.75
73.62
77.45
80.53
82.06
81.48
78.62
73.88
68.18
62.64
58.23
55.49
54.35
54.21
54.27
53.78
52.22
49.29
44.84
38.72
30.85
21.29
10.34
-1.49
-13.61
-25.46
-36.46
-45.93
-52.98
-56.57
-55.93
-51
-42.75
-33.1
-24.39
-18.62
-16.77
-18.67
-23.27
-29.23
-35.46
-41.3
-46.37
-50.36
-52.87
-53.51
-52.07
-48.68
-43.8
-38.01
-31.83
-25.66
-19.83
-14.67
-10.58
-7.82
-6.36
-5.8
-5.46
-4.66
-3.05
-0.78
1.58
3.3
3.75
2.73
0.47
-2.5
-5.54
-8.31
-10.88
-13.69
-17.25
-21.72
-26.57
-30.69
-32.8
-32.1
-28.84
-24.4
-20.8
-19.95
-22.79
-28.95
-37
-45.1
-51.77
-56.38
-59.15
-60.76
-61.94
-63.32
-65.25
-67.79
-70.19
-70.25
-64.17
-47.78
-18.79
20.77
63.8
100.02
119.95
119.25
100.58
72.31
44.4
24
13.01
8.87
7.33
5.48
2.98
1.32
1.84
4.33
6.83
6.79
2.57
-5.57
-15.58
-24.48
-29.65
-29.93
-25.84
-19.16
-12.11
-6.44
-2.91
-1.32
-0.88
-0.82
-0.81
-0.98
-1.75
-3.4
-5.7
-7.86
-8.69
-7.14
-2.68
4.34
12.92
21.75
29.74
36.32
41.47
45.4
48.21
49.78
49.78
47.99
44.51
39.8
34.55
29.4
24.69
20.47
16.54
12.67
8.73
4.81
1.17
-1.88
-4.09
-5.38
-5.83
-5.73
-5.43
-5.34
-5.79
-7.05
-9.17
-12.07
-15.49
-19.12
-22.71
-26.09
-29.23
-32.17
-35.01
-37.85
-40.78
-43.78
-46.66
-49.01
-50.31
-50
-47.74
-43.54
-37.71
-30.78
-23.23
-15.37
-7.26
1.1
9.77
18.67
27.66
36.55
45.13
53.26
60.81
67.71
73.89
79.32
83.89
87.5
90.02
91.32
91.39
90.28
88.13
85.08
81.2
76.53
71.08
64.96
58.38
51.66
45.12
38.94
33.17
27.7
22.35
16.93
11.25
5.1
-1.73
-9.48
-18.27
-28.07
-38.54
-49.01
-58.61
-66.39
-71.53
-73.52
-72.29
-68.17
-61.74
-53.78
-45.05
-36.25
-27.95
-20.55
-14.25
-9.04
-4.71
-1.04
2.16
4.9
7.08
8.58
9.34
9.47
9.2
8.81
8.53
8.52
8.87
9.66
10.87
12.4
14.02
15.35
15.99
15.62
14.16
11.76
8.76
5.57
2.53
-0.1
-2.22
-3.81
-4.95
-5.74
-6.33
-6.83
-7.22
-7.37
-7.14
-6.38
-5.13
-3.56
-1.98
-0.67
0.12
0.18
-0.66
-2.48
-5.15
-8.21
-10.88
-12.23
-11.49
-8.38
-3.16
3.47
10.68
17.72
24.09
29.38
33.28
35.45
35.69
34.04
30.79
26.39
21.23
15.54
9.35
2.66
-4.42
-11.55
-18.24
-24
-28.6
-32.2
-35.36
-39.13
-44.82
-53.7
-66.59
-83.26
-102.25
-120.93
-136.15
-145.18
-146.62
-140.71
-129.24
-114.74
-99.69
-85.82
-73.89
-63.88
-55.34
-47.79
-40.92
-34.74
-29.71
-26.66
-26.83
-31.5
-41.58
-56.81
-75.26
-93.33
-106.46
-110.54
-103.4
-85.69
-60.66
-33.01
-7.08
14.54
31.52
45.43
58.59
72.95
89.35
107.46
126.16
144.2
160.72
175.46
188.62
200.5
211.1
219.99
226.5
230.07
230.57
228.35
224.04
218.17
210.85
201.85
190.86
177.93
163.64
149.09
135.55
124.08
115.17
108.66
103.85
99.65
94.98
89.01
81.34
72.02
61.45
50.07
38.18
25.8
12.76
-1.24
-16.38
-32.53
-49.27
-65.9
-81.56
-95.48
-107.04
-115.93
-122.03
-125.36
-125.92
-123.68
-118.7
-111.25
-101.95
-91.72
-81.56
-72.26
-64.21
-57.34
-51.27
-45.61
-40.03
-34.46
-28.99
-23.76
-18.86
-14.27
-9.85
-5.44
-0.97
3.46
7.59
11
13.34
14.37
14.09
12.74
10.78
8.67
6.83
5.4
4.22
2.88
0.83
-2.4
-6.99
-12.75
-19.2
-25.68
-31.54
-36.26
-39.53
-41.36
-42.03
-42.14
-42.46
-43.74
-46.38
-50.25
-54.63
-58.42
-60.54
-60.35
-57.85
-53.69
-48.86
-44.37
-40.94
-38.95
-38.41
-39.24
-41.24
-44.15
-47.54
-50.86
-53.57
-55.32
-56.16
-56.6
-57.34
-58.99
-61.78
-65.37
-69.01
-71.72
-72.68
-71.4
-67.8
-62.2
-55.16
-47.34
-39.39
-31.83
-25.02
-19.14
-14.22
-10.19
-6.93
-4.27
-2.14
-0.54
0.48
0.8
0.37
-0.72
-2.16
-3.61
-4.78
-5.62
-6.36
-7.41
-9.15
-11.68
-14.76
-17.8
-20.05
-20.82
-19.68
-16.64
-12.08
-6.69
-1.19
3.78
7.85
10.93
13.16
14.88
16.48
18.27
20.43
22.93
25.53
27.89
29.77
31.04
31.85
32.43
32.98
33.53
33.9
33.76
32.82
30.91
28.04
24.38
20.22
15.93
11.95
8.66
6.36
5.12
4.79
5.01
5.32
5.27
4.46
2.65
-0.29
-4.29
-9.09
-14.19
-18.94
-22.59
-24.48
-24.12
-21.37
-16.44
-9.88
-2.55
4.52
10.34
14.12
15.47
14.43
11.44
7.18
2.39
-2.2
-5.98
-8.47
-9.35
-8.5
-6.13
-2.67
1.29
5.21
8.8
12.12
15.56
19.63
24.68
30.69
37.24
43.6
49.04
53.04
55.54
56.86
57.55
58.11
58.81
59.65
60.44
60.92
60.95
60.54
59.93
59.49
59.55
60.27
61.34
61.96
60.96
57.24
50.17
39.94
27.54
14.47
2.25
-7.98
-15.64
-20.58
-22.95
-23.01
-21.13
-17.85
-13.91
-10.18
-7.41
-6.07
-6.22
-7.63
-9.86
-12.43
-14.94
-17.05
-18.5
-19.1
-18.71
-17.29
-15.04
-12.23
-9.25
-6.5
-4.32
-2.91
-2.4
-2.82
-4.06
-5.99
-8.38
-11.01
-13.69
-16.34
-18.97
-21.6
-24.25
-26.84
-29.26
-31.39
-33.26
-35.06
-37.07
-39.52
-42.38
-45.18
-47.19
-47.56
-45.73
-41.6
-35.66
-28.8
-21.95
-15.82
-10.72
-6.57
-3.1
-0.02
2.81
5.35
7.47
9.03
10.01
10.51
10.68
10.7
10.63
10.46
10.17
9.74
9.27
8.88
8.69
8.74
8.96
9.25
9.49
9.64
9.65
9.46
8.97
8.03
6.54
4.5
2.06
-0.59
-3.28
-5.95
-8.69
-11.65
-15.01
-18.79
-22.82
-26.73
-29.99
-32.03
-32.37
-30.73
-27.08
-21.75
-15.31
-8.51
-2.06
3.48
7.81
10.94
13.07
14.46
15.35
15.85
16.01
15.85
15.43
14.9
14.4
14.06
13.97
14.11
14.42
14.86
15.33
15.77
16.11
16.28
16.2
15.84
15.14
14.08
12.63
10.76
8.53
6.03
3.47
1.07
-1.02
-2.74
-4.19
-5.58
-7.15
-9.14
-11.68
-14.78
-18.3
-21.82
-24.82
-26.63
-26.71
-24.79
-21
-15.85
-10.06
-4.32
0.85
5.26
8.88
11.77
13.93
15.33
15.92
15.71
14.85
13.57
12.15
10.81
9.69
8.87
8.33
8.02
7.86
7.76
7.61
7.35
6.93
6.35
5.59
4.63
3.45
2.02
0.35
-1.47
-3.31
-5.04
-6.53
-7.8
-8.93
-10.07
-11.33
-12.8
-14.5
-16.42
-18.45
-20.36
-21.77
-22.21
-21.2
-18.48
-14.15
-8.71
-2.88
2.58
7.13
10.59
13.07
14.83
16.13
17.11
17.79
18.12
18.1
17.78
17.3
16.87
16.62
16.63
16.79
16.92
16.8
16.29
15.43
14.45
13.6
13.03
12.67
12.18
11.17
9.38
6.8
3.74
0.61
-2.24
-4.66
-6.79
-8.91
-11.33
-14.28
-17.91
-22.16
-26.86
-31.63
-35.93
-39.11
-40.59
-40.05
-37.51
-33.41
-28.44
-23.37
-18.79
-14.99
-11.94
-9.46
-7.32
-5.43
-3.79
-2.47
-1.54
-0.98
-0.69
-0.53
-0.41
-0.32
-0.32
-0.59
-1.22
-2.24
-3.5
-4.71
-5.56
-5.77
-5.24
-4.02
-2.33
-0.4
1.57
3.52
5.57
7.91
10.73
14.1
17.86
21.63
24.86
26.99
27.48
25.94
22.1
16
8.06
-0.74
-9.04
-15.38
-18.66
-18.58
-15.6
-10.81
-5.37
-0.19
4.31
8.08
11.27
14.02
16.4
18.42
20.09
21.42
22.46
23.25
23.84
24.27
24.53
24.59
24.36
23.75
22.7
21.26
19.54
17.7
15.86
14.12
12.56
11.26
10.25
9.51
8.97
8.45
7.76
6.71
5.19
3.24
0.96
-1.47
-3.9
-6.22
-8.39
-10.44
-12.53
-14.83
-17.51
-20.59
-23.82
-26.65
-28.39
-28.39
-26.34
-22.4
-17.12
-11.24
-5.44
-0.13
4.55
8.6
12.06
14.93
17.17
18.74
19.66
19.96
19.73
19.04
18.03
16.88
15.79
14.93
14.36
14.06
13.96
14
14.17
14.45
14.8
15.08
15.09
14.61
13.6
12.11
10.32
8.36
6.24
3.89
1.24
-1.64
-4.51
-7.08
-9.1
-10.5
-11.42
-12.08
-12.78
-13.76
-15.17
-17.12
-19.6
-22.44
-25.28
-27.52
-28.47
-27.52
-24.39
-19.25
-12.74
-5.79
0.75
6.32
10.8
14.39
17.39
19.96
22.02
23.43
24.05
23.94
23.32
22.45
21.53
20.61
19.64
18.61
17.58
16.64
15.84
15.13
14.36
13.35
11.96
10.17
8.04
5.7
3.28
0.85
-1.54
-3.92
-6.34
-8.83
-11.37
-13.83
-16.01
-17.74
-18.95
-19.79
-20.57
-21.67
-23.37
-25.74
-28.59
-31.49
-33.88
-35.13
-34.74
-32.44
-28.31
-22.74
-16.41
-10.07
-4.35
0.43
4.21
7.14
9.43
11.25
12.68
13.72
14.34
14.51
14.25
13.6
12.68
11.6
10.51
9.49
8.62
7.94
7.49
7.32
7.5
8.07
9.02
10.28
11.72
13.21
14.63
15.87
16.82
17.39
17.53
17.26
16.63
15.74
14.7
13.55
12.3
10.88
9.16
6.91
3.81
-0.45
-5.96
-12.51
-19.42
-25.72
-30.36
-32.61
-32.26
-29.65
-25.53
-20.69
-15.78
-11.19
-7.08
-3.53
-0.68
1.31
2.31
2.33
1.58
0.4
-0.81
-1.76
-2.35
-2.59
-2.57
-2.35
-1.88
-1.06
0.16
1.73
3.43
4.98
6.14
6.85
7.2
7.34
7.42
7.45
7.3
6.83
5.98
4.84
3.56
2.3
1.13
-0.05
-1.44
-3.24
-5.55
-8.3
-11.22
-13.88
-15.79
-16.5
-15.7
-13.35
-9.68
-5.16
-0.36
4.2
8.18
11.44
14.02
16.05
17.62
18.75
19.38
19.46
18.96
18
16.79
15.61
14.7
14.17
13.99
14.04
14.1
14.04
13.76
13.25
12.55
11.7
10.7
9.54
8.18
6.67
5.02
3.33
1.62
-0.07
-1.8
-3.61
-5.54
-7.55
-9.54
-11.38
-12.92
-14.19
-15.3
-16.47
-17.91
-19.68
-21.65
-23.46
-24.59
-24.59
-23.15
-20.24
-16.1
-11.21
-6.11
-1.3
2.83
6.08
8.43
9.91
10.65
10.77
10.37
9.64
8.74
7.91
7.31
7.05
7.1
7.36
7.71
8.02
8.24
8.3
8.19
7.86
7.27
6.39
5.16
3.58
1.67
-0.52
-2.91
-5.4
-7.86
-10.16
-12.21
-13.93
-15.34
-16.52
-17.57
-18.65
-19.86
-21.34
-23.14
-25.25
-27.53
-29.62
-30.98
-31.01
-29.24
-25.51
-20.13
-13.74
-7.08
-0.81
4.68
9.21
12.78
15.37
16.94
17.52
17.22
16.3
15.06
13.76
12.6
11.64
10.9
10.38
10.03
9.81
9.63
9.35
8.89
8.21
7.37
6.51
5.74
5.14
4.65
4.12
3.34
2.19
0.63
-1.19
-3.09
-4.94
-6.74
-8.66
-10.93
-13.71
-17.07
-20.9
-24.95
-28.87
-32.15
-34.2
-34.45
-32.53
-28.5
-22.87
-16.5
-10.31
-4.94
-0.58
2.96
6.07
9.02
11.86
14.48
16.77
18.69
20.36
21.95
23.5
24.9
25.95
26.42
26.2
25.32
23.93
22.15
20.12
17.89
15.49
12.93
10.2
7.21
3.84
-0.02
-4.42
-9.22
-14.12
-18.76
-22.8
-26.04
-28.47
-30.23
-31.51
-32.5
-33.32
-34.07
-34.72
-35.14
-35.03
-33.97
-31.52
-27.44
-21.79
-14.98
-7.68
-0.61
5.7
10.97
15.14
18.27
20.4
21.51
21.61
20.77
19.2
17.13
14.78
12.26
9.59
6.75
3.78
0.82
-1.95
-4.36
-6.33
-7.89
-9.1
-9.97
-10.46
-10.48
-10.03
-9.29
-8.54
-8.15
-8.3
-8.98
-9.94
-10.79
-11.21
-11.08
-10.47
-9.67
-9.04
-8.9
-9.48
-10.89
-13.03
-15.61
-18.11
-19.91
-20.37
-19.1
-16.05
-11.57
-6.33
-1.02
3.76
7.73
10.91
13.47
15.63
17.47
18.96
20.01
20.6
20.85
20.99
21.27
21.83
22.63
23.47
24.12
24.4
24.23
23.61
22.55
21.02
19
16.53
13.79
11.01
8.44
6.25
4.44
2.94
1.7
0.7
-0.01
-0.44
-0.73
-1.13
-1.92
-3.27
-5.19
-7.53
-10.07
-12.62
-15.03
-17.06
-18.35
-18.43
-16.94
-13.78
-9.23
-3.93
1.38
6.09
9.89
12.78
14.92
16.47
17.53
18.12
18.26
17.99
17.47
16.86
16.29
15.79
15.35
14.9
14.4
13.78
13.04
12.15
11.13
9.94
8.59
7.11
5.55
3.98
2.47
1.07
-0.25
-1.58
-3.04
-4.71
-6.61
-8.65
-10.67
-12.53
-14.2
-15.76
-17.4
-19.3
-21.56
-24.17
-26.9
-29.4
-31.21
-31.85
-30.9
-28.19
-23.84
-18.23
-11.99
-5.74
-0.06
4.73
8.46
11.14
12.87
13.84
14.2
14.15
13.91
13.64
13.43
13.27
13.07
12.73
12.22
11.61
11.04
10.69
10.59
10.65
10.65
10.37
9.68
8.6
7.32
6.01
4.8
3.65
2.42
0.96
-0.81
-2.78
-4.77
-6.6
-8.13
-9.4
-10.55
-11.75
-13.17
-14.89
-17.01
-19.5
-22.22
-24.87
-26.94
-27.85
-27.12
-24.56
-20.34
-14.98
-9.15
-3.46
1.66
5.98
9.46
12.11
13.97
15.05
15.43
15.22
14.62
13.89
13.27
12.96
12.99
13.25
13.54
13.64
13.49
13.13
12.7
12.3
11.89
11.34
10.47
9.17
7.54
5.75
3.99
2.4
0.95
-0.48
-2.04
-3.78
-5.6
-7.32
-8.74
-9.77
-10.45
-11
-11.69
-12.77
-14.42
-16.64
-19.32
-22.22
-24.93
-26.95
-27.8
-27.07
-24.62
-20.61
-15.49
-9.9
-4.49
0.23
4.01
6.83
8.83
10.22
11.13
11.64
11.75
11.48
10.91
10.14
9.29
8.41
7.52
6.63
5.81
5.22
5.02
5.34
6.17
7.38
8.77
10.13
11.33
12.3
13.08
13.72
14.21
14.5
14.43
13.82
12.5
10.48
7.88
4.99
2.06
-0.74
-3.43
-6.18
-9.2
-12.63
-16.48
-20.67
-24.97
-29.06
-32.48
-34.67
-35.13
-33.55
-30.06
-25.13
-19.52
-13.92
-8.84
-4.5
-0.95
1.76
3.51
4.16
3.71
2.4
0.69
-0.86
-1.85
-2.06
-1.53
-0.46
0.94
2.47
4.02
5.59
7.17
8.74
10.24
11.55
12.49
12.96
12.9
12.4
11.6
10.59
9.39
7.89
5.97
3.57
0.81
-2.07
-4.8
-7.21
-9.34
-11.46
-13.88
-16.83
-20.26
-23.82
-26.92
-28.88
-29.14
-27.4
-23.72
-18.41
-12.03
-5.28
1.18
6.76
11.1
14.06
15.76
16.48
16.52
16.15
15.55
14.82
14.05
13.33
12.71
12.19
11.69
11.07
10.25
9.19
8.01
6.85
5.86
5.16
4.8
4.83
5.22
5.9
6.71
7.38
7.65
7.34
6.5
5.27
3.86
2.36
0.71
-1.26
-3.69
-6.6
-9.87
-13.27
-16.58
-19.51
-21.8
-23.06
-22.94
-21.18
-17.81
-13.25
-8.2
-3.39
0.62
3.57
5.55
6.79
7.52
7.89
7.96
7.78
7.43
7.06
6.75
6.58
6.46
6.34
6.15
5.95
5.82
5.91
6.24
6.76
7.3
7.66
7.67
7.3
6.6
5.73
4.8
3.87
2.91
1.81
0.48
-1.08
-2.77
-4.48
-6.12
-7.74
-9.43
-11.34
-13.54
-16.05
-18.77
-21.56
-24.2
-26.36
-27.65
-27.59
-25.89
-22.48
-17.63
-11.9
-5.97
-0.46
4.2
7.81
10.37
11.98
12.8
13.02
12.84
12.48
12.14
11.99
12.1
12.41
12.84
13.26
13.64
14
14.39
14.85
15.29
15.51
15.28
14.47
13.12
11.46
9.76
8.25
6.99
5.87
4.7
3.32
1.68
-0.14
-2.02
-3.81
-5.44
-6.92
-8.34
-9.82
-11.52
-13.53
-15.9
-18.53
-21.22
-23.62
-25.32
-25.86
-24.89
-22.23
-17.97
-12.51
-6.46
-0.52
4.71
8.86
11.85
13.87
15.2
16.08
16.64
16.91
16.92
16.73
16.48
16.32
16.3
16.36
16.35
16.14
15.7
15.13
14.57
14.1
13.66
13.05
12.1
10.74
9.08
7.37
5.87
4.71
3.88
3.19
2.38
1.27
-0.26
-2.16
-4.3
-6.47
-8.45
-10.14
-11.56
-12.79
-14.04
-15.51
-17.35
-19.6
-22.11
-24.5
-26.2
-26.6
-25.23
-21.96
-17.08
-11.23
-5.22
0.24
4.67
7.94
10.17
11.61
12.55
13.17
13.62
13.93
14.05
13.93
13.58
13.05
12.44
11.87
11.41
11.09
10.89
10.82
10.83
10.92
10.98
10.89
10.49
9.68
8.46
6.95
5.4
4.06
3.15
2.74
2.7
2.77
2.58
1.85
0.43
-1.59
-4
-6.54
-8.99
-11.28
-13.47
-15.69
-18.11
-20.79
-23.63
-26.33
-28.4
-29.3
-28.58
-26.06
-21.9
-16.62
-10.9
-5.43
-0.74
2.92
5.48
7.02
7.7
7.67
7.09
6.12
4.91
3.59
2.23
0.84
-0.62
-2.15
-3.73
-5.3
-6.87
-8.5
-10.36
-12.62
-15.39
-18.67
-22.38
-26.39
-30.63
-35.13
-39.91
-45.05
-50.57
-56.44
-62.61
-68.98
-75.44
-81.79
-87.84
-93.51
-98.92
-104.45
-110.57
-117.48
-124.73
-131.03
-134.45
-132.93
-124.87
-109.71
-88.01
-61.26
-31.5
-0.86
28.78
55.91
79.51
99.11
114.73
126.81
136.03
143.01
148.16
151.61
153.31
153.29
151.8
149.37
146.72
144.55
143.32
143.1
143.67
144.57
145.32
145.54
145.06
143.87
142.11
139.99
137.77
135.72
133.99
132.57
131.24
129.54
126.85
122.59
116.39
108.29
98.73
88.48
78.3
68.66
59.55
50.54
40.95
30.19
17.99
4.5
-9.79
-24.26
-38.33
-51.62
-63.95
-75.28
-85.63
-95.01
-103.37
-110.59
-116.51
-120.92
-123.66
-124.67
-124.06
-122.12
-119.26
-115.86
-112.27
-108.67
-105.13
-101.63
-98.09
-94.42
-90.49
-86.17
-81.37
-76.12
-70.62
-65.23
-60.34
-56.21
-52.89
-50.22
-47.86
-45.44
-42.71
-39.58
-36.13
-32.51
-28.89
-25.36
-21.93
-18.58
-15.27
-12.04
-8.97
-6.22
-3.94
-2.23
-1.11
-0.4
0.15
0.87
2.06
3.93
6.56
9.91
13.94
18.53
23.57
28.85
34.01
38.5
41.58
42.5
40.6
35.54
27.42
16.85
4.93
-6.9
-17.17
-24.73
-29.07
-30.44
-29.81
-28.56
-28.04
-29.16
-32.23
-36.98
-42.79
-49
-55.14
-61.02
-66.66
-72.2
-77.78
-83.45
-89.23
-95.12
-101.06
-106.98
-112.72
-117.97
-122.24
-124.81
-124.72
-120.88
-112.34
-98.5
-79.27
-55.1
-26.89
4.18
36.72
69.06
99.25
125.18
144.95
157.37
162.41
161.13
155.31
146.76
136.74
125.8
113.93
101.09
87.57
74.06
61.47
50.5
41.41
33.99
27.7
22.05
16.84
12.23
8.6
6.31
5.48
5.92
7.18
8.8
10.44
12.03
13.64
15.39
17.25
18.98
20.23
20.66
20.11
18.6
16.32
13.47
10.3
7.13
4.48
2.99
3.23
5.38
9.14
13.77
18.46
22.66
26.3
29.72
33.34
37.33
41.44
45.02
47.3
47.65
45.8
41.93
36.6
30.68
25.16
20.94
18.62
18.38
20
23.01
26.94
31.42
36.33
41.7
47.57
53.87
60.32
66.54
72.02
76.32
79.04
79.87
78.56
75.06
69.54
62.5
54.66
46.67
38.91
31.24
23.04
13.53
2.21
-10.7
-24.19
-36.79
-47
-53.94
-57.53
-58.45
-57.72
-56.26
-54.62
-52.82
-50.64
-47.79
-44.13
-39.76
-34.95
-29.96
-24.91
-19.74
-14.24
-8.25
-1.82
4.73
10.9
16.22
20.43
23.64
26.16
28.34
30.3
31.93
33.05
33.54
33.52
33.22
32.87
32.4
31.51
29.77
26.86
22.76
17.78
12.32
6.68
0.83
-5.5
-12.6
-20.55
-29.09
-37.62
-45.43
-52.03
-57.18
-61.03
-63.91
-66.26
-68.48
-70.92
-73.83
-77.36
-81.49
-85.93
-90.14
-93.33
-94.71
-93.72
-90.24
-84.63
-77.69
-70.31
-63.25
-56.94
-51.5
-46.88
-42.97
-39.72
-37.11
-35.11
-33.66
-32.63
-31.91
-31.38
-30.94
-30.48
-29.8
-28.72
-27.07
-24.76
-21.86
-18.56
-15.11
-11.77
-8.72
-6
-3.53
-1.13
1.34
3.98
6.72
9.45
12.04
14.4
16.51
18.34
19.87
21.04
21.76
21.97
21.62
20.66
18.97
16.45
13.07
8.97
4.57
0.44
-2.76
-4.62
-4.97
-3.99
-2.04
0.5
3.31
6.16
8.79
10.92
12.27
12.58
11.8
10.04
7.58
4.75
1.87
-0.79
-3.04
-4.73
-5.77
-6.21
-6.22
-6.04
-5.85
-5.78
-5.84
-5.95
-6.04
-6.09
-6.09
-6.07
-6.02
-5.96
-5.89
-5.85
-5.9
-6.1
-6.45
-6.96
-7.6
-8.38
-9.3
-10.4
-11.68
-13.17
-14.92
-16.93
-19.17
-21.42
-23.23
-24.01
-23.23
-20.59
-16.2
-10.6
-4.5
1.4
6.6
10.87
14.17
16.53
18.01
18.63
18.49
17.79
16.79
15.81
15.12
14.87
15.03
15.47
15.96
16.27
16.24
15.83
15.09
14.15
13.17
12.23
11.4
10.69
10.07
9.49
8.87
8.09
7.04
5.68
4.05
2.33
0.67
-0.8
-2.11
-3.39
-4.9
-6.86
-9.45
-12.66
-16.25
-19.76
-22.55
-23.94
-23.43
-20.89
-16.62
-11.28
-5.67
-0.51
3.82
7.21
9.78
11.68
12.99
13.73
13.93
13.7
13.3
12.99
12.97
13.31
13.9
14.57
15.17
15.58
15.83
15.99
16.13
16.29
16.43
16.44
16.19
15.55
14.43
12.83
10.8
8.44
5.85
3.15
0.46
-2.09
-4.4
-6.4
-8.16
-9.8
-11.51
-13.45
-15.68
-18.11
-20.52
-22.53
-23.64
-23.4
-21.49
-17.84
-12.71
-6.67
-0.44
5.28
10.01
13.48
15.72
16.86
17.12
16.76
16.02
15.17
14.38
13.77
13.3
12.91
12.52
12.11
11.7
11.31
10.92
10.41
9.68
8.69
7.49
6.23
5.03
3.92
2.78
1.48
-0.04
-1.68
-3.22
-4.42
-5.15
-5.51
-5.71
-6.08
-6.81
-8.04
-9.74
-11.87
-14.32
-16.88
-19.15
-20.6
-20.65
-18.92
-15.46
-10.72
-5.46
-0.46
3.75
7.02
9.44
11.22
12.47
13.19
13.32
12.9
12.14
11.36
10.84
10.72
10.97
11.41
11.84
12.12
12.21
12.14
11.94
11.61
11.09
10.31
9.21
7.78
6.05
4.08
1.97
-0.17
-2.22
-4.08
-5.65
-6.92
-7.93
-8.85
-9.9
-11.28
-13.17
-15.56
-18.22
-20.76
-22.61
-23.23
-22.25
-19.65
-15.69
-10.91
-5.91
-1.15
3.06
6.58
9.32
11.23
12.24
12.36
11.75
10.65
9.39
8.24
7.36
6.8
6.52
6.47
6.58
6.77
6.97
7.11
7.11
6.94
6.61
6.13
5.55
4.92
4.22
3.46
2.59
1.62
0.55
-0.56
-1.68
-2.79
-3.91
-5.13
-6.59
-8.43
-10.77
-13.59
-16.67
-19.57
-21.61
-22.17
-20.81
-17.53
-12.82
-7.43
-2.19
2.3
5.77
8.26
9.95
10.99
11.47
11.42
10.91
10.09
9.16
8.31
7.67
7.24
6.97
6.81
6.75
6.83
7.14
7.71
8.51
9.39
10.09
10.42
10.24
9.61
8.72
7.79
6.98
6.32
5.67
4.85
3.73
2.3
0.65
-1.11
-2.97
-5.01
-7.35
-9.99
-12.74
-15.12
-16.48
-16.25
-14.14
-10.23
-4.97
1.01
7.16
13.08
18.56
23.45
27.59
30.81
32.99
34.23
34.75
34.85
34.65
34.03
32.75
30.64
27.82
24.73
21.92
19.81
18.42
17.44
16.36
14.78
12.53
9.67
6.37
2.77
-1.09
-5.22
-9.55
-13.94
-18.15
-21.97
-25.27
-28.08
-30.56
-32.94
-35.38
-37.9
-40.28
-42.13
-42.95
-42.3
-39.92
-35.83
-30.35
-24.05
-17.56
-11.48
-6.24
-2.03
1.14
3.37
4.79
5.48
5.52
5.01
4.13
3.19
2.54
2.54
3.34
4.86
6.77
8.65
10.15
11.12
11.69
12.2
13.01
14.43
16.61
19.53
22.99
26.72
30.28
33.19
34.96
35.17
33.59
30.22
25.27
19.06
11.95
4.33
-3.36
-10.58
-16.67
-20.98
-22.99
-22.52
-19.79
-15.43
-10.25
-5.1
-0.64
2.78
5.02
6.14
6.3
5.67
4.42
2.76
0.96
-0.71
-1.99
-2.74
-2.94
-2.71
-2.27
-1.77
-1.33
-0.94
-0.55
-0.18
0.12
0.21
-0.04
-0.7
-1.73
-3.04
-4.52
-6.09
-7.69
-9.31
-10.96
-12.65
-14.45
-16.5
-18.99
-22.06
-25.7
-29.71
-33.64
-36.9
-38.88
-39.09
-37.3
-33.52
-28.11
-21.6
-14.64
-7.89
-1.86
3.13
7.03
9.96
12.11
13.67
14.8
15.63
16.29
16.96
17.78
18.85
20.16
21.58
22.98
24.24
25.29
26.07
26.53
26.55
26.05
24.98
23.39
21.42
19.18
16.76
14.13
11.26
8.15
4.89
1.61
-1.56
-4.52
-7.28
-9.89
-12.41
-14.93
-17.53
-20.29
-23.25
-26.36
-29.36
-31.86
-33.32
-33.21
-31.23
-27.38
-21.97
-15.59
-8.87
-2.37
3.53
8.65
12.92
16.31
18.81
20.4
21.15
21.24
20.92
20.46
20.07
19.81
19.63
19.44
19.13
18.67
18.09
17.49
16.96
16.52
16.15
15.68
14.96
13.87
12.38
10.61
8.79
7.17
5.86
4.8
3.76
2.45
0.65
-1.61
-4.13
-6.58
-8.68
-10.34
-11.67
-12.94
-14.47
-16.52
-19.16
-22.28
-25.55
-28.42
-30.25
-30.49
-28.83
-25.32
-20.43
-14.8
-9.09
-3.84
0.7
4.41
7.3
9.37
10.62
11.08
10.88
10.29
9.61
9.18
9.2
9.7
10.55
11.56
12.5
13.25
13.79
14.17
14.49
14.83
15.19
15.51
15.67
15.5
14.92
13.91
12.54
11
9.43
7.94
6.55
5.22
3.87
2.46
1
-0.49
-1.95
-3.31
-4.57
-5.71
-6.76
-7.82
-9.02
-10.54
-12.47
-14.71
-16.94
-18.59
-19.06
-17.93
-15.11
-10.94
-6.03
-1.04
3.53
7.41
10.55
12.99
14.75
15.77
16.05
15.63
14.71
13.54
12.4
11.48
10.81
10.32
9.88
9.44
8.97
8.52
8.18
7.98
7.88
7.74
7.4
6.73
5.72
4.48
3.19
2.01
1.04
0.24
-0.48
-1.27
-2.21
-3.34
-4.64
-6.03
-7.46
-8.85
-10.18
-11.45
-12.68
-13.91
-15.24
-16.78
-18.59
-20.65
-22.69
-24.25
-24.73
-23.62
-20.67
-16.08
-10.41
-4.43
1.14
5.81
9.41
11.95
13.55
14.32
14.39
13.88
13.03
12.04
11.15
10.48
10.06
9.86
9.75
9.61
9.38
9.07
8.74
8.49
8.37
8.3
8.13
7.7
6.86
5.63
4.08
2.38
0.71
-0.86
-2.3
-3.61
-4.81
-5.93
-6.98
-7.95
-8.87
-9.77
-10.72
-11.81
-13.16
-14.89
-17.05
-19.5
-21.93
-23.82
-24.62
-23.89
-21.51
-17.69
-12.98
-7.99
-3.24
0.94
4.44
7.24
9.34
10.69
11.27
11.15
10.56
9.8
9.17
8.87
8.96
9.3
9.73
10.09
10.27
10.26
10.07
9.7
9.14
8.35
7.28
5.93
4.36
2.68
1.03
-0.48
-1.81
-2.98
-4.09
-5.18
-6.29
-7.36
-8.33
-9.14
-9.82
-10.51
-11.36
-12.53
-14.1
-16.04
-18.22
-20.35
-22.09
-23
-22.69
-20.9
-17.63
-13.16
-8.06
-2.96
1.54
5.11
7.72
9.45
10.48
10.94
10.85
10.31
9.44
8.48
7.7
7.25
7.18
7.36
7.62
7.78
7.73
7.45
6.99
6.43
5.9
5.45
5.12
4.86
4.51
3.88
2.84
1.34
-0.53
-2.62
-4.79
-6.97
-9.13
-11.27
-13.33
-15.29
-17.11
-18.87
-20.69
-22.66
-24.71
-26.6
-27.9
-28.11
-26.89
-24.15
-20.07
-15.08
-9.65
-4.24
0.74
4.97
8.17
10.16
10.92
10.61
9.58
8.22
6.95
6.03
5.6
5.62
6.02
6.64
7.31
7.79
7.91
7.53
6.73
5.73
4.77
4.03
3.45
2.8
1.81
0.34
-1.51
-3.5
-5.35
-6.94
-8.35
-9.81
-11.49
-13.49
-15.7
-17.95
-20.05
-21.84
-23.16
-23.86
-23.69
-22.47
-20.09
-16.66
-12.5
-8.08
-3.93
-0.49
1.95
3.31
3.68
3.28
2.35
1.16
-0.1
-1.24
-2.16
-2.83
-3.29
-3.63
-3.94
-4.25
-4.54
-4.73
-4.71
-4.51
-4.24
-4.12
-4.36
-5.09
-6.27
-7.74
-9.26
-10.63
-11.76
-12.72
-13.66
-14.83
-16.44
-18.59
-21.2
-23.94
-26.26
-27.55
-27.25
-25.1
-21.16
-15.89
-9.94
-3.96
1.54
6.29
10.29
13.66
16.57
19.06
21.12
22.63
23.51
23.82
23.72
23.46
23.24
23.19
23.28
23.4
23.48
23.46
23.39
23.26
23.06
22.62
21.76
20.3
18.19
15.51
12.5
9.48
6.72
4.39
2.51
0.95
-0.48
-1.97
-3.64
-5.57
-7.79
-10.28
-12.9
-15.36
-17.18
-17.82
-16.83
-14.07
-9.83
-4.7
0.57
5.39
9.44
12.76
15.5
17.85
19.85
21.4
22.39
22.74
22.56
22.04
21.44
20.93
20.58
20.33
20.1
19.78
19.36
18.85
18.24
17.43
16.3
14.77
12.89
10.83
8.87
7.2
5.85
4.69
3.51
2.12
0.5
-1.31
-3.21
-5.13
-7.01
-8.86
-10.66
-12.44
-14.3
-16.39
-18.8
-21.44
-23.97
-25.77
-26.2
-24.79
-21.43
-16.42
-10.36
-3.98
2.06
7.27
11.39
14.37
16.31
17.39
17.83
17.82
17.48
16.91
16.18
15.34
14.45
13.59
12.81
12.17
11.71
11.46
11.37
11.3
11.05
10.45
9.4
7.99
6.41
4.9
3.64
2.67
1.94
1.28
0.56
-0.31
-1.38
-2.63
-3.99
-5.4
-6.78
-8.05
-9.17
-10.19
-11.23
-12.47
-14.06
-15.99
-18.02
-19.68
-20.42
-19.81
-17.69
-14.21
-9.81
-5.05
-0.41
3.71
7.1
9.66
11.33
12.16
12.23
11.66
10.66
9.46
8.34
7.55
7.29
7.64
8.5
9.64
10.73
11.48
11.76
11.59
11.11
10.46
9.71
8.77
7.6
6.18
4.6
3.03
1.56
0.16
-1.3
-3
-4.98
-7.1
-9.09
-10.68
-11.8
-12.56
-13.26
-14.23
-15.71
-17.73
-20.07
-22.25
-23.68
-23.83
-22.36
-19.29
-14.96
-9.99
-5.01
-0.53
3.19
6.12
8.36
10.02
11.15
11.77
11.92
11.73
11.33
10.9
10.52
10.21
9.9
9.54
9.09
8.6
8.15
7.82
7.64
7.51
7.25
6.69
5.7
4.28
2.56
0.75
-0.97
-2.5
-3.85
-5.06
-6.16
-7.15
-8.02
-8.8
-9.61
-10.57
-11.88
-13.64
-15.85
-18.43
-21.15
-23.68
-25.6
-26.45
-25.85
-23.66
-20
-15.29
-10.11
-5.08
-0.68
2.77
5.2
6.7
7.49
7.82
7.91
7.95
8.07
8.36
8.86
9.58
10.49
11.49
12.47
13.37
14.13
14.76
15.23
15.47
15.33
14.69
13.47
11.77
9.79
7.82
6.04
4.5
3.09
1.65
0.07
-1.62
-3.27
-4.7
-5.84
-6.78
-7.76
-9.05
-10.81
-13.03
-15.5
-17.9
-19.87
-21.05
-21.13
-19.92
-17.4
-13.7
-9.17
-4.25
0.56
4.88
8.43
11.12
12.95
13.99
14.31
14.04
13.32
12.32
11.21
10.15
9.26
8.61
8.17
7.89
7.67
7.41
7.01
6.42
5.62
4.65
3.56
2.44
1.38
0.45
-0.31
-0.92
-1.42
-1.89
-2.45
-3.17
-4.1
-5.23
-6.53
-7.94
-9.45
-11.06
-12.88
-15.01
-17.53
-20.39
-23.33
-25.87
-27.45
-27.51
-25.77
-22.26
-17.4
-11.84
-6.28
-1.3
2.81
5.97
8.28
9.88
10.87
11.34
11.37
11.07
10.61
10.14
9.78
9.6
9.62
9.81
10.1
10.38
10.52
10.36
9.82
8.88
7.59
6.05
4.34
2.54
0.72
-1.03
-2.6
-3.95
-5.06
-6.03
-6.98
-8.05
-9.32
-10.76
-12.3
-13.83
-15.33
-16.84
-18.43
-20.1
-21.69
-22.83
-23.05
-21.91
-19.24
-15.21
-10.3
-5.11
-0.18
4.13
7.7
10.49
12.48
13.65
13.96
13.52
12.59
11.49
10.58
10.05
9.89
9.97
10.13
10.25
10.32
10.35
10.38
10.4
10.38
10.26
9.96
9.42
8.51
7.13
5.26
2.98
0.46
-2.06
-4.38
-6.42
-8.2
-9.79
-11.31
-12.88
-14.59
-16.56
-18.78
-21.15
-23.35
-24.91
-25.3
-24.14
-21.34
-17.18
-12.22
-7.13
-2.51
1.31
4.26
6.44
8.02
9.11
9.73
9.89
9.72
9.47
9.45
9.88
10.78
11.91
12.9
13.43
13.39
12.93
12.36
11.93
11.72
11.56
11.19
10.36
8.99
7.18
5.11
2.94
0.8
-1.26
-3.21
-4.99
-6.62
-8.13
-9.67
-11.43
-13.49
-15.79
-18.07
-19.92
-20.87
-20.54
-18.77
-15.63
-11.4
-6.55
-1.58
3.09
7.12
10.32
12.6
13.97
14.45
14.16
13.32
12.23
11.22
10.54
10.3
10.45
10.81
11.16
11.36
11.33
11.05
10.54
9.84
8.95
7.87
6.59
5.1
3.41
1.55
-0.37
-2.22
-3.85
-5.23
-6.43
-7.64
-9.13
-11.05
-13.49
-16.35
-19.37
-22.17
-24.29
-25.23
-24.6
-22.25
-18.37
-13.43
-8.09
-2.97
1.45
4.95
7.49
9.15
10.04
10.27
10
9.47
8.92
8.58
8.58
8.91
9.45
10
10.35
10.41
10.1
9.48
8.64
7.65
6.53
5.24
3.68
1.75
-0.52
-3.02
-5.52
-7.74
-9.54
-10.96
-12.25
-13.78
-15.83
-18.5
-21.57
-24.53
-26.72
-27.55
-26.64
-23.99
-19.82
-14.59
-8.8
-2.91
2.73
7.85
12.24
15.79
18.45
20.23
21.18
21.4
21.04
20.36
19.59
19
18.67
18.54
18.41
18.07
17.45
16.6
15.64
14.66
13.61
12.31
10.62
8.49
6
3.38
0.83
-1.57
-3.82
-6.02
-8.26
-10.63
-13.21
-16.07
-19.28
-22.82
-26.43
-29.61
-31.71
-32.12
-30.49
-26.89
-21.8
-15.92
-9.93
-4.3
0.76
5.26
9.29
12.92
16.09
18.67
20.55
21.7
22.23
22.38
22.36
22.34
22.33
22.27
22.02
21.54
20.83
20.03
19.2
18.38
17.47
16.34
14.87
13.05
10.95
8.71
6.47
4.32
2.28
0.3
-1.68
-3.74
-5.9
-8.23
-10.79
-13.69
-17.03
-20.75
-24.62
-28.12
-30.61
-31.49
-30.38
-27.27
-22.49
-16.62
-10.29
-4.07
1.7
6.81
11.19
14.83
17.73
19.9
21.35
22.12
22.25
21.86
21.08
20.1
19.14
18.37
17.85
17.56
17.4
17.21
16.9
16.41
15.72
14.8
13.63
12.18
10.51
8.73
6.98
5.33
3.75
2.11
0.28
-1.75
-3.9
-5.96
-7.8
-9.34
-10.71
-12.13
-13.88
-16.17
-19.03
-22.24
-25.35
-27.75
-28.85
-28.3
-26
-22.2
-17.34
-11.89
-6.31
-0.93
3.94
8.12
11.44
13.88
15.46
16.33
16.61
16.48
16.14
15.78
15.61
15.72
16.06
16.46
16.7
16.64
16.3
15.8
15.28
14.82
14.28
13.49
12.29
10.68
8.82
6.95
5.31
4
2.95
1.97
0.88
-0.46
-2.06
-3.81
-5.54
-7.12
-8.5
-9.74
-10.97
-12.36
-14.07
-16.21
-18.76
-21.58
-24.31
-26.44
-27.4
-26.74
-24.29
-20.23
-15.06
-9.43
-3.94
1.03
5.27
8.74
11.45
13.41
14.58
15.04
14.9
14.38
13.7
13.07
12.61
12.34
12.23
12.18
12.16
12.1
12.01
11.9
11.74
11.46
10.96
10.14
8.95
7.43
5.72
4.02
2.54
1.37
0.5
-0.2
-0.9
-1.71
-2.67
-3.73
-4.87
-6.06
-7.33
-8.69
-10.17
-11.76
-13.52
-15.51
-17.77
-20.19
-22.44
-24.01
-24.32
-22.99
-20.01
-15.76
-10.89
-6.1
-1.86
1.6
4.31
6.39
7.95
9.05
9.64
9.68
9.22
8.39
7.43
6.6
6.1
6.01
6.26
6.71
7.17
7.5
7.62
7.52
7.2
6.66
5.91
4.93
3.76
2.42
0.99
-0.45
-1.83
-3.11
-4.28
-5.38
-6.44
-7.5
-8.57
-9.63
-10.63
-11.6
-12.59
-13.75
-15.27
-17.27
-19.76
-22.53
-25.14
-27
-27.54
-26.4
-23.55
-19.35
-14.31
-9
-3.81
0.99
5.2
8.64
11.13
12.54
12.94
12.64
12.02
11.44
11.08
10.91
10.79
10.59
10.29
9.95
9.65
9.41
9.21
8.95
8.55
7.96
7.18
6.24
5.16
3.98
2.73
1.47
0.26
-0.91
-2.05
-3.22
-4.49
-5.87
-7.32
-8.73
-10
-11.1
-12.14
-13.28
-14.71
-16.56
-18.84
-21.41
-23.96
-26.03
-27.11
-26.75
-24.71
-21.08
-16.27
-10.94
-5.76
-1.2
2.55
5.48
7.7
9.31
10.33
10.82
10.91
10.81
10.76
10.92
11.35
11.96
12.6
13.09
13.34
13.29
12.97
12.46
11.89
11.35
10.86
10.38
9.75
8.81
7.49
5.85
4.07
2.34
0.79
-0.55
-1.72
-2.79
-3.83
-4.84
-5.83
-6.81
-7.79
-8.77
-9.78
-10.81
-11.93
-13.21
-14.74
-16.56
-18.61
-20.68
-22.36
-23.22
-22.82
-20.94
-17.62
-13.2
-8.18
-3.12
1.52
5.45
8.57
10.89
12.47
13.37
13.71
13.58
13.19
12.7
12.26
11.99
11.93
12.04
12.27
12.48
12.55
12.36
11.89
11.16
10.27
9.3
8.28
7.19
5.95
4.52
2.93
1.27
-0.37
-1.94
-3.44
-4.9
-6.31
-7.64
-8.82
-9.83
-10.7
-11.57
-12.63
-14.08
-16.03
-18.44
-21.08
-23.51
-25.19
-25.58
-24.35
-21.52
-17.44
-12.69
-7.86
-3.4
0.46
3.73
6.5
8.86
10.84
12.37
13.32
13.69
13.55
13.11
12.61
12.24
12.04
11.92
11.77
11.53
11.26
11.06
10.99
11
10.87
10.39
9.44
8.06
6.4
4.65
2.91
1.17
-0.62
-2.51
-4.46
-6.37
-8.12
-9.65
-10.94
-12.11
-13.32
-14.79
-16.67
-18.97
-21.46
-23.67
-25.07
-25.14
-23.62
-20.57
-16.36
-11.48
-6.44
-1.64
2.67
6.3
9.14
11.13
12.31
12.82
12.9
12.78
12.65
12.59
12.58
12.61
12.66
12.75
12.88
13
13.05
12.93
12.6
12.05
11.3
10.34
9.17
7.79
6.26
4.67
3.08
1.55
0
-1.66
-3.47
-5.43
-7.4
-9.25
-10.91
-12.4
-13.91
-15.64
-17.75
-20.29
-23.1
-25.83
-28.01
-29.15
-28.83
-26.86
-23.32
-18.56
-13.11
-7.55
-2.38
2.11
5.85
8.91
11.42
13.44
14.94
15.84
16.17
16.07
15.79
15.53
15.44
15.49
15.54
15.49
15.32
15.09
14.87
14.7
14.51
14.13
13.41
12.25
10.68
8.82
6.87
5
3.36
1.99
0.82
-0.27
-1.46
-2.84
-4.39
-6.01
-7.55
-8.88
-10.02
-11.09
-12.33
-13.94
-15.99
-18.36
-20.69
-22.45
-23.12
-22.33
-19.99
-16.33
-11.8
-6.99
-2.4
1.66
5.07
7.87
10.15
11.92
13.18
13.91
14.16
14.06
13.83
13.68
13.67
13.78
13.89
13.89
13.78
13.62
13.51
13.48
13.43
13.19
12.6
11.58
10.21
8.65
7.05
5.5
3.99
2.45
0.8
-0.97
-2.79
-4.55
-6.13
-7.46
-8.55
-9.46
-10.31
-11.25
-12.39
-13.84
-15.63
-17.72
-19.92
-21.87
-23.11
-23.16
-21.7
-18.69
-14.4
-9.36
-4.18
0.6
4.66
7.87
10.24
11.84
12.77
13.1
12.94
12.44
11.77
11.08
10.47
10
9.66
9.44
9.35
9.37
9.49
9.67
9.83
9.83
9.55
8.87
7.77
6.28
4.57
2.82
1.18
-0.29
-1.62
-2.92
-4.27
-5.69
-7.11
-8.48
-9.75
-11.01
-12.34
-13.87
-15.68
-17.81
-20.2
-22.7
-25
-26.65
-27.11
-25.94
-23
-18.53
-13.11
-7.49
-2.29
2.08
5.55
8.23
10.25
11.71
12.63
13.03
12.98
12.63
12.16
11.76
11.55
11.56
11.79
12.18
12.65
13.04
13.24
13.08
12.53
11.59
10.38
9.12
8.06
7.46
7.51
8.25
9.48
10.84
11.86
12.15
11.55
10.16
8.26
6.15
3.92
1.45
-1.51
-5.2
-9.67
-14.68
-19.68
-24.03
-27.05
-28.29
-27.56
-24.97
-20.88
-15.79
-10.21
-4.57
0.82
5.74
10.06
13.67
16.5
18.53
19.81
20.44
20.57
20.35
19.87
19.19
18.31
17.19
15.82
14.2
12.42
10.6
8.95
7.64
6.74
6.15
5.58
4.64
2.99
0.51
-2.61
-5.94
-8.99
-11.47
-13.39
-15
-16.67
-18.63
-20.99
-23.7
-26.71
-30.06
-33.8
-37.79
-41.67
-44.88
-46.85
-47.32
-46.41
-44.44
-41.59
-37.61
-31.84
-23.54
-12.37
1.27
16.25
31.03
44.12
54.39
61.24
64.52
64.43
61.41
56.13
49.42
42.14
35.03
28.55
22.93
18.14
14
10.32
6.92
3.67
0.57
-2.29
-4.8
-6.89
-8.6
-10.08
-11.54
-13.09
-14.74
-16.35
-17.71
-18.65
-19.17
-19.46
-19.77
-20.41
-21.56
-23.23
-25.26
-27.27
-28.74
-29.09
-27.81
-24.67
-19.8
-13.76
-7.32
-1.23
4.05
8.38
11.9
14.77
17.11
18.85
19.91
20.24
20
19.46
18.91
18.52
18.3
18.12
17.81
17.27
16.48
15.48
14.32
12.99
11.46
9.69
7.69
5.52
3.3
1.11
-0.99
-2.99
-4.88
-6.59
-8.04
-9.18
-10.07
-10.86
-11.81
-13.12
-14.9
-17.13
-19.61
-22.04
-24.01
-25.04
-24.71
-22.79
-19.31
-14.66
-9.41
-4.1
0.84
5.22
9.01
12.17
14.61
16.15
16.75
16.5
15.71
14.79
14.08
13.73
13.67
13.72
13.66
13.39
12.92
12.33
11.67
10.97
10.16
9.19
8.03
6.71
5.29
3.81
2.23
0.57
-1.15
-2.85
-4.38
-5.68
-6.78
-7.86
-9.18
-10.99
-13.43
-16.45
-19.84
-23.23
-26.18
-28.18
-28.78
-27.66
-24.71
-20.13
-14.39
-8.11
-1.96
3.55
8.12
11.66
14.19
15.83
16.66
16.8
16.4
15.68
14.9
14.3
13.98
13.96
14.07
14.15
14.02
13.59
12.87
11.9
10.77
9.52
8.19
6.75
5.2
3.53
1.81
0.12
-1.42
-2.78
-3.98
-5.1
-6.24
-7.47
-8.82
-10.3
-11.95
-13.85
-16.06
-18.56
-21.13
-23.35
-24.72
-24.79
-23.31
-20.41
-16.45
-11.97
-7.46
-3.25
0.52
3.82
6.6
8.74
10.12
10.68
10.54
9.97
9.31
8.84
8.69
8.81
9.09
9.35
9.52
9.53
9.37
9.06
8.61
8.07
7.43
6.71
5.84
4.76
3.41
1.84
0.15
-1.5
-2.95
-4.16
-5.21
-6.26
-7.47
-8.98
-10.82
-13
-15.49
-18.17
-20.85
-23.17
-24.66
-24.84
-23.43
-20.42
-16.16
-11.22
-6.21
-1.62
2.3
5.5
8.02
9.93
11.24
12
12.27
12.23
12.07
12.03
12.25
12.71
13.27
13.71
13.83
13.51
12.8
11.84
10.77
9.7
8.63
7.49
6.14
4.49
2.54
0.35
-1.95
-4.23
-6.4
-8.45
-10.41
-12.4
-14.54
-16.98
-19.83
-23.07
-26.5
-29.72
-32.14
-33.18
-32.4
-29.68
-25.28
-19.74
-13.74
-7.87
-2.52
2.17
6.22
9.72
12.67
15.03
16.75
17.82
18.36
18.57
18.66
18.79
19
19.19
19.26
19.11
18.75
18.23
17.63
16.94
16.05
14.86
13.24
11.17
8.73
6.08
3.39
0.85
-1.43
-3.41
-5.09
-6.56
-7.98
-9.58
-11.59
-14.19
-17.42
-21.18
-25.14
-28.78
-31.49
-32.7
-32.01
-29.36
-25
-19.48
-13.41
-7.35
-1.66
3.46
7.96
11.83
15.05
17.57
19.34
20.41
20.88
20.96
20.83
20.7
20.66
20.73
20.88
21.04
21.1
20.98
20.56
19.77
18.57
17.01
15.24
13.37
11.48
9.57
7.54
5.32
2.94
0.52
-1.77
-3.82
-5.64
-7.42
-9.46
-12.01
-15.21
-19.02
-23.16
-27.15
-30.41
-32.33
-32.44
-30.54
-26.76
-21.56
-15.6
-9.57
-3.99
0.89
5.07
8.71
11.91
14.68
16.91
18.47
19.34
19.65
19.63
19.57
19.62
19.76
19.87
19.79
19.46
18.9
18.2
17.43
16.6
15.64
14.45
12.94
11.11
9.06
6.91
4.81
2.81
0.9
-1
-3.01
-5.21
-7.64
-10.29
-13.16
-16.19
-19.34
-22.43
-25.17
-27.09
-27.72
-26.68
-23.9
-19.68
-14.52
-9.04
-3.73
1.14
5.53
9.47
12.98
15.95
18.19
19.56
20.08
19.93
19.4
18.77
18.21
17.76
17.37
17
16.67
16.47
16.47
16.69
16.99
17.15
16.95
16.28
15.14
13.66
11.99
10.32
8.76
7.42
6.41
5.85
5.91
6.8
8.68
11.63
15.54
20.1
24.84
29.19
32.69
35.05
36.21
36.41
35.98
35.28
34.57
34.01
33.7
33.75
34.32
35.58
37.55
40
42.46
44.3
44.98
44.27
42.3
39.58
36.77
34.58
33.57
34.05
35.87
38.35
40.34
40.48
37.59
31.13
21.38
9.24
-4.09
-17.61
-30.69
-43.05
-54.52
-64.88
-73.8
-81
-86.49
-90.6
-93.99
-97.38
-101.25
-105.7
-110.3
-114.22
-116.57
-116.67
-114.33
-109.96
-104.33
-98.31
-92.51
-87.12
-82.01
-76.99
-72.05
-67.48
-63.76
-61.43
-60.83
-62.12
-65.26
-69.9
-75.16
-79.42
-80.4
-75.64
-63.37
-43.44
-17.82
9.82
35.12
54.41
65.81
69.5
67.24
61.52
54.8
49.32
47.18
50.4
60.59
78.24
102.17
129.34
155.67
177.16
191.21
197.16
196.11
190.09
181.1
170.56
159.28
147.73
136.4
125.91
116.85
109.56
103.89
99.28
94.92
90.08
84.41
78.09
71.73
66.24
62.44
60.88
61.61
64.26
68.06
72.11
75.54
77.62
77.92
76.23
72.41
66.32
57.75
46.53
32.84
17.36
1.4
-13.47
-25.88
-35.1
-41.37
-45.66
-49.19
-52.91
-57.11
-61.51
-65.49
-68.51
-70.23
-70.58
-69.5
-66.97
-63.01
-57.85
-51.99
-46.18
-41.18
-37.48
-35.17
-33.95
-33.33
-32.91
-32.54
-32.36
-32.62
-33.6
-35.41
-38.12
-41.77
-46.49
-52.41
-59.57
-67.73
-76.39
-84.87
-92.58
-99.15
-104.57
-109.14
-113.34
-117.72
-122.83
-129.27
-137.53
-147.9
-160.19
-173.6
-186.75
-197.91
-205.44
-208.27
-206.09
-199.43
-189.42
-177.37
-164.41
-151.19
-137.87
-124.23
-109.96
-94.9
-79.14
-63.04
-46.99
-31.22
-15.75
-0.43
14.78
29.66
43.65
56.03
66.22
74.02
79.69
83.83
87.16
90.43
94.35
99.63
106.9
116.6
128.68
142.5
156.83
170.05
180.61
187.31
189.59
187.55
181.89
173.67
164.06
154.09
144.33
134.8
124.91
113.82
100.81
85.66
68.74
50.97
33.42
16.97
2.2
-10.7
-21.79
-31.21
-39.18
-45.89
-51.44
-55.74
-58.45
-58.97
-56.66
-51.23
-43.01
-33.09
-23.03
-14.46
-8.53
-5.66
-5.52
-7.32
-10.2
-13.44
-16.69
-19.79
-22.71
-25.39
-27.68
-29.41
-30.36
-30.41
-29.6
-28.19
-26.71
-25.8
-26.03
-27.65
-30.46
-33.81
-36.83
-38.72
-39.04
-37.78
-35.35
-32.39
-29.62
-27.73
-27.25
-28.5
-31.51
-35.96
-41.32
-46.97
-52.4
-57.38
-61.96
-66.38
-70.92
-75.79
-81.07
-86.68
-92.33
-97.56
-101.76
-104.27
-104.53
-102.22
-97.3
-90.04
-80.85
-70.27
-58.83
-47.12
-35.7
-25.06
-15.46
-6.93
0.73
7.78
14.35
20.28
25.25
28.94
31.28
32.51
33.15
33.73
34.59
35.74
36.87
37.61
37.64
36.79
35.1
32.71
29.84
26.7
23.53
20.52
17.78
15.29
12.94
10.55
8.02
5.29
2.38
-0.68
-3.85
-7.11
-10.31
-13.27
-15.77
-17.7
-19.19
-20.53
-22.1
-24.06
-26.19
-27.86
-28.23
-26.61
-22.72
-16.86
-9.76
-2.37
4.49
10.3
14.9
18.39
20.99
22.88
24.12
24.74
24.75
24.26
23.48
22.65
22.02
21.71
21.72
21.93
22.22
22.47
22.63
22.68
22.57
22.24
21.59
20.58
19.24
17.68
16.1
14.64
13.34
12.14
10.89
9.43
7.7
5.75
3.74
1.84
0.15
-1.32
-2.68
-4.07
-5.66
-7.6
-9.98
-12.83
-16.02
-19.25
-22.04
-23.78
-23.9
-22.05
-18.21
-12.75
-6.31
0.36
6.58
11.9
16.13
19.3
21.56
23.09
23.99
24.36
24.26
23.78
23.06
22.31
21.69
21.31
21.16
21.14
21.12
21.02
20.85
20.66
20.49
20.31
19.95
19.24
18.07
16.47
14.63
12.76
11.04
9.47
8
6.52
4.96
3.34
1.67
-0.02
-1.75
-3.53
-5.31
-7.06
-8.75
-10.46
-12.36
-14.68
-17.49
-20.56
-23.38
-25.24
-25.52
-23.87
-20.36
-15.39
-9.57
-3.48
2.39
7.73
12.31
15.99
18.69
20.37
21.14
21.19
20.81
20.28
19.85
19.67
19.72
19.91
20.05
20.01
19.72
19.2
18.56
17.85
17.09
16.19
15.08
13.66
11.97
10.11
8.24
6.54
5.12
3.95
2.91
1.79
0.42
-1.24
-3.14
-5.06
-6.82
-8.31
-9.55
-10.73
-12.07
-13.84
-16.2
-19.15
-22.49
-25.78
-28.46
-29.96
-29.89
-28.09
-24.75
-20.3
-15.29
-10.25
-5.62
-1.69
1.36
3.43
4.5
4.64
3.99
2.8
1.34
-0.07
-1.15
-1.59
-1.22
0.05
2.11
4.68
7.35
9.74
11.53
12.59
12.96
12.81
12.29
11.54
10.61
9.48
8.15
6.61
4.89
3.08
1.24
-0.54
-2.27
-3.98
-5.71
-7.52
-9.41
-11.41
-13.57
-15.95
-18.52
-21.02
-22.97
-23.63
-22.34
-18.71
-12.9
-5.58
2.3
9.8
16.27
21.43
25.27
27.92
29.47
30.06
29.82
29
27.93
26.96
26.32
26.09
26.21
26.52
26.85
27.05
26.94
26.37
25.22
23.39
20.92
18
14.9
11.95
9.45
7.58
6.35
5.58
4.98
4.17
2.83
0.78
-1.9
-4.94
-7.99
-10.76
-13.16
-15.33
-17.53
-19.93
-22.49
-24.88
-26.57
-27.02
-25.95
-23.31
-19.37
-14.53
-9.25
-3.89
1.26
5.99
10.15
13.62
16.31
18.14
19.11
19.32
18.93
18.21
17.46
16.9
16.61
16.52
16.51
16.48
16.41
16.35
16.3
16.17
15.73
14.8
13.29
11.33
9.19
7.16
5.38
3.82
2.35
0.79
-0.89
-2.65
-4.37
-5.95
-7.36
-8.66
-9.93
-11.3
-12.91
-14.89
-17.34
-20.2
-23.18
-25.72
-27.13
-26.85
-24.68
-20.8
-15.81
-10.41
-5.18
-0.46
3.7
7.36
10.6
13.41
15.72
17.46
18.63
19.36
19.82
20.17
20.47
20.71
20.8
20.67
20.28
19.68
18.95
18.17
17.43
16.75
16.12
15.47
14.69
13.69
12.42
10.95
9.41
7.96
6.67
5.5
4.26
2.79
1.01
-0.99
-3.01
-4.84
-6.37
-7.68
-9
-10.61
-12.73
-15.49
-18.8
-22.36
-25.69
-28.19
-29.26
-28.51
-25.85
-21.6
-16.38
-10.91
-5.76
-1.25
2.55
5.76
8.49
10.76
12.53
13.77
14.49
14.82
14.98
15.14
15.43
15.87
16.4
16.9
17.31
17.57
17.69
17.73
17.71
17.55
17.15
16.38
15.18
13.64
11.89
10.14
8.51
7.02
5.62
4.21
2.74
1.21
-0.39
-2
-3.62
-5.21
-6.72
-8.15
-9.53
-10.97
-12.61
-14.61
-16.99
-19.71
-22.54
-25.17
-27.18
-28.1
-27.54
-25.28
-21.42
-16.38
-10.79
-5.32
-0.48
3.54
6.78
9.4
11.49
13.05
14
14.33
14.16
13.74
13.37
13.28
13.55
14.06
14.62
15.05
15.28
15.37
15.41
15.45
15.44
15.18
14.49
13.28
11.66
9.85
8.1
6.56
5.24
4
2.72
1.34
-0.12
-1.6
-3.08
-4.56
-6.06
-7.53
-8.96
-10.31
-11.64
-13.08
-14.86
-17.09
-19.76
-22.65
-25.32
-27.25
-27.93
-27.03
-24.47
-20.48
-15.53
-10.22
-5.08
-0.5
3.35
6.49
9.01
10.99
12.45
13.41
13.92
14.12
14.23
14.43
14.82
15.33
15.8
16.05
15.97
15.61
15.08
14.52
13.96
13.34
12.54
11.49
10.21
8.79
7.34
5.95
4.67
3.48
2.36
1.28
0.19
-0.95
-2.21
-3.63
-5.17
-6.75
-8.26
-9.63
-10.91
-12.18
-13.59
-15.23
-17.18
-19.4
-21.78
-24.09
-25.94
-26.84
-26.34
-24.17
-20.44
-15.58
-10.29
-5.29
-1.03
2.32
4.86
6.78
8.2
9.14
9.55
9.49
9.1
8.64
8.37
8.42
8.77
9.27
9.78
10.21
10.52
10.71
10.76
10.59
10.11
9.28
8.1
6.66
5.09
3.52
2.06
0.76
-0.37
-1.38
-2.37
-3.42
-4.54
-5.67
-6.73
-7.65
-8.5
-9.39
-10.5
-11.93
-13.71
-15.82
-18.21
-20.79
-23.34
-25.5
-26.79
-26.72
-24.98
-21.61
-17.01
-11.79
-6.55
-1.75
2.38
5.74
8.34
10.18
11.33
11.92
12.15
12.27
12.48
12.84
13.29
13.69
13.91
13.88
13.62
13.2
12.64
11.95
11.1
10.01
8.69
7.11
5.33
3.42
1.47
-0.43
-2.27
-4.09
-6.01
-8.14
-10.54
-13.14
-15.78
-18.25
-20.42
-22.35
-24.27
-26.47
-29.18
-32.5
-36.35
-40.56
-44.82
-48.75
-51.94
-53.97
-54.56
-53.66
-51.41
-48.18
-44.38
-40.37
-36.46
-32.86
-29.78
-27.36
-25.68
-24.65
-23.96
-23.12
-21.48
-18.49
-13.77
-7.38
0.17
7.96
14.96
20.28
23.5
24.59
23.92
21.94
19.07
15.65
11.9
8
4.05
-0.02
-4.34
-9.08
-14.26
-19.62
-24.65
-28.74
-31.44
-32.55
-32.27
-31.08
-29.5
-27.94
-26.54
-25.24
-23.85
-22.24
-20.41
-18.44
-16.35
-13.98
-11.01
-7.02
-1.66
5.41
14.47
25.83
39.75
56.13
74.27
92.79
109.88
123.89
133.87
139.87
142.72
143.54
143.25
142.32
140.93
139.32
137.98
137.64
138.92
141.97
146.33
150.91
154.41
155.64
153.83
148.74
140.64
130.2
118.29
105.77
93.21
80.84
68.6
56.35
44.06
31.93
20.29
9.37
-0.95
-11.26
-22.5
-35.54
-50.71
-67.52
-84.6
-99.95
-111.47
-117.56
-117.59
-112.09
-102.44
-90.28
-77.14
-63.95
-51
-38.11
-25.17
-12.4
-0.4
10.26
19.59
27.96
35.84
43.39
50.19
55.47
58.5
59.04
57.25
53.52
47.49
38.42
26.34
13.15
2.73
-0.56
5.9
20.99
40.11
55.97
61.63
53.4
32.12
2.17
-30.96
-62.81
-91.17
-112.99
-124.54
-123.27
-109.7
-87.13
-59.9
-31.96
-6.43
12.68
25.07
31.07
31.42
27.16
19.39
8.82
-4.86
-20.45
-37.5
-54.94
-71.58
-86.04
-96.55
-101.15
-98.29
-87.65
-70.77
-51.05
-32.19
-17.59
-9.45
-8.1
-12.03
-18.55
-24.67
-28.22
-28.15
-24.26
-17.22
-8.8
-1.02
4.64
7.94
9.63
10.16
9.53
7.37
3.78
-1.9
-9.88
-19.32
-28.1
-33.84
-36.52
-37.19
-37.12
-35.49
-32.64
-29.25
-26.13
-23.7
-22.72
-26.54
-37.76
-56.58
-78.01
-98.9
-118.07
-135.97
-153.34
-171.24
-193.6
-223.12
-259.79
-297.71
-333.74
-366.46
-394.39
-414.43
-404.82
-353.94
-265.29
-176.62
-102.16
-45.97
-1.49
36.57
74.74
119.14
170.57
227.23
286.14
347.42
406.78
451.53
468.5
451.69
405.96
341.69
271.01
203.48
147.52
106.05
74.77
49.85
28.96
10.2
-9.84
-33.54
-60.72
-84.26
-97.71
-96.97
-80.65
-50.75
-12.37
27.44
62.85
91.09
113.31
131.01
145.07
156.34
165.69
174.22
182.85
192.37
203.11
215.05
226.9
236.65
242.93
245.22
243.67
238.67
230.47
219.21
205.2
189.07
171.93
155.37
140.81
129.03
119.9
112.68
106.42
100.47
94.46
88.12
81.12
72.68
61.74
47.2
28.34
5.08
-21.92
-51.72
-83.33
-116.12
-149.92
-184.92
-221.58
-260.78
-303.97
-352.74
-407.72
-466.95
-524.86
-572.82
-601.5
-604.19
-579.37
-531.29
-468.16
-399.09
-331.42
-269.7
-216.18
-171.99
-137.77
-113.34
-97.02
-85.5
-74.77
-61.75
-45.57
-27.75
-11.08
1.96
10.65
16.39
21.93
30.02
42.04
57.34
73.47
87.15
95.56
97.23
92.35
82.31
68.96
53.97
38.55
23.56
9.84
-1.74
-10.42
-15.94
-18.74
-19.86
-20.48
-21.41
-22.7
-23.64
-23.16
-20.42
-15.35
-8.94
-3.19
-0.48
-2.79
-10.79
-23.28
-37.14
-48.01
-51.5
-44.47
-26.06
2.07
36.11
71.16
102.58
127.04
143.14
151.37
153.48
151.72
148.15
144.19
140.52
137.21
133.98
130.57
127.02
123.91
122.19
123.02
127.17
134.64
144.43
154.84
163.91
170.03
172.24
170.2
163.85
153.27
138.53
119.91
98.02
73.82
48.33
22.21
-4.45
-31.95
-60.46
-89.34
-116.89
-140.58
-157.69
-166.27
-165.76
-157.28
-143.26
-126.85
-110.99
-97.67
-87.4
-79.14
-70.94
-60.92
-48.42
-34.47
-21.4
-11.64
-6.3
-4.57
-4.09
-2.26
2.47
9.85
18.23
25.54
30.33
32.2
31.64
29.6
26.89
24.01
21.03
17.58
12.92
6.1
-3.6
-16.32
-31.3
-47.11
-61.94
-74.04
-81.97
-84.77
-81.86
-73.13
-59.04
-40.79
-20.15
0.91
20.88
39.23
56.81
75.57
97.92
125.6
158.64
194.87
230.17
259.59
278.92
285.81
280.27
264.33
241.47
215.87
191.83
173.02
161.82
158.85
162.87
171.25
180.68
187.97
190.51
186.44
174.64
154.76
127.41
94.28
58.03
21.72
-12.03
-41.94
-68.29
-92.75
-117.4
-143.91
-172.77
-203.13
-233.2
-261.22
-286.07
-307.67
-326.66
-343.75
-359.37
-373.84
-387.8
-402.5
-419.38
-438.83
-459.12
-476.12
-484.32
-478.95
-457.89
-422.71
-377.99
-329.51
-282.04
-238
-197.38
-158.65
-119.95
-79.89
-37.77
6.52
52.3
97.89
140.24
175.25
198.73
207.91
202.72
186.21
163.6
140.48
120.86
106.12
95.06
85.04
73.57
59.37
42.68
24.73
6.83
-10.25
-26.37
-41.7
-56
-68.43
-77.69
-82.57
-82.63
-78.51
-71.71
-64.04
-57.01
-51.31
-46.9
-43.35
-40.24
-37.45
-35.07
-33.22
-31.88
-30.88
-30.14
-29.86
-30.48
-32.26
-34.78
-36.79
-36.58
-32.92
-25.9
-17.11
-9
-3.65
-1.67
-2.06
-2.77
-1.72
2.67
11.44
25.32
44.54
68.31
94.29
118.84
138.34
150.99
157.89
162.6
169.17
179.6
192.3
202.41
203.96
192.66
167.8
132.43
91.93
51.9
16.49
-12.19
-33.64
-48.04
-55.7
-56.89
-52.4
-43.92
-34.07
-25.75
-21.18
-21.13
-24.73
-30.02
-34.88
-37.91
-38.86
-38.48
-38.01
-38.49
-40.33
-43.09
-45.73
-47.1
-46.35
-43.31
-38.43
-32.46
-26
-19.23
-11.81
-3.19
6.96
18.37
30.09
40.71
48.97
54.21
56.63
57.16
57.01
57.05
57.44
57.61
56.48
53.13
47.25
39.52
31.53
25.32
22.72
24.72
31.07
40.21
49.71
57.01
60.37
59.79
57.39
57.28
64.5
83.54
116.73
163.19
218.62
276.16
328.1
367.79
391.16
397.32
388.35
368.13
341.05
310.76
279.44
247.73
215.19
181.19
145.76
110.06
76.27
47.04
24.56
9.99
3.18
2.95
7.47
14.81
23.22
31.41
38.86
45.99
54.18
65.36
81.36
102.98
129.48
158.64
187.26
211.74
228.61
235.24
230.56
215.73
194.22
170.84
149.91
133.48
120.48
107.65
91.59
70.88
46.92
23.02
2.52
-13.05
-24.44
-33.72
-42.84
-52.47
-62.08
-70.87
-78.73
-86.64
-96.36
-109.63
-127.63
-150.79
-178.89
-211.07
-245.47
-279
-307.63
-327.34
-335.36
-330.96
-315.25
-290.06
-256.68
-215.32
-165.87
-109.39
-49.27
8.79
58.26
94.05
114.12
119.93
115.31
104.7
91.63
78.14
64.95
52.25
40.34
29.72
20.98
14.48
10.28
8.37
8.89
12.1
18
25.82
33.77
39.29
39.92
34.35
23.13
8.69
-5.29
-14.98
-17.71
-12.93
-2.49
9.95
20.28
25.41
24.26
17.84
8.39
-1.9
-11.69
-20.83
-29.72
-38.72
-47.83
-57
-66.69
-78.12
-92.91
-111.95
-134.68
-158.96
-182.12
-202.33
-219.6
-235.67
-252.97
-273.36
-297.15
-323.34
-350.42
-377.15
-402.71
-426.07
-445.26
-457.24
-458.65
-447.16
-422.66
-387.33
-344.68
-298.25
-250.59
-203.31
-157.55
-114.83
-77.17
-46.38
-23.25
-6.81
5.21
15.36
25.24
35
43.75
50.61
55.56
59.6
64.21
70.52
79.01
89.5
101.55
114.6
127.88
140.18
149.93
155.64
156.55
152.98
146.09
137.19
127.05
115.65
102.55
87.67
71.77
56.39
43.24
33.47
27.27
23.93
22.45
22.08
22.68
24.46
27.67
32.07
36.87
40.92
43.22
43.25
41.12
37.36
32.51
26.92
20.7
13.9
6.78
-0.26
-6.79
-12.68
-18.29
-24.32
-31.47
-39.97
-49.5
-59.28
-68.58
-77.11
-85.16
-93.39
-102.4
-112.37
-122.97
-133.54
-143.41
-152.19
-159.84
-166.66
-173.1
-179.54
-186.01
-191.93
-195.94
-196.1
-190.12
-176.03
-152.81
-120.77
-81.76
-38.84
4.43
44.77
79.97
109.19
132.95
152.54
169.29
184.06
197.03
207.88
216.26
222.12
225.78
227.68
228.1
227
224.24
219.79
213.98
207.51
201.14
195.41
190.38
185.74
181.1
176.3
171.58
167.39
164.12
161.79
160.01
158.3
156.4
154.46
152.94
152.23
152.28
152.51
151.91
149.46
144.4
136.27
124.76
109.51
90.21
66.85
40.12
11.37
-17.63
-45.27
-70.54
-93.01
-112.48
-128.45
-139.95
-145.8
-145.16
-138.12
-125.72
-109.68
-91.68
-72.92
-53.91
-34.74
-15.27
4.68
25.43
47.53
71.63
98.03
126.12
154.11
179.14
198.18
209.03
210.98
204.77
191.98
174.36
153.59
131.59
110.68
93.3
81.04
73.42
67.42
58.28
41.55
15.22
-19.07
-56.59
-91.45
-118.78
-136.2
-143.85
-143.41
-136.96
-126.21
-112.6
-97.51
-82.48
-68.98
-57.75
-48.22
-38.53
-26.23
-9.49
11.81
35.68
58.53
76.6
87.3
90.4
88.02
83.63
80.63
81.17
85.63
93.03
102.08
111.92
122.5
134.14
146.77
159.52
170.65
178.28
181.28
179.74
174.99
168.99
163.37
158.74
154.38
148.49
138.91
123.89
102.85
76.53
46.72
15.67
-14.57
-42.47
-67.11
-88.02
-105.05
-118.38
-128.48
-135.9
-140.86
-142.93
-141.02
-134.1
-122.13
-106.88
-91.91
-81.48
-78.93
-85.25
-98.66
-115.45
-131.64
-144.45
-152.94
-157.66
-159.65
-159.52
-157.29
-152.83
-146.44
-139.11
-132.15
-126.56
-122.6
-120.03
-118.75
-119.4
-123.58
-133.35
-150.49
-176.02
-210.09
-252.05
-300.29
-351.69
-401.18
-442.04
-467.32
-472.08
-455.39
-420.92
-375.67
-327.52
-282.59
-244.01
-211.92
-184.8
-160.76
-138.22
-115.87
-92.48
-66.95
-38.72
-8.4
22.08
49.77
71.64
85.61
91.25
89.95
84.52
78.22
73.88
73.19
76.46
82.83
90.74
98.54
104.87
108.84
110.13
108.92
105.75
101.45
96.82
92.38
88.2
84.04
79.63
74.98
70.45
66.59
63.73
61.75
60.08
57.95
54.81
50.41
44.88
38.53
31.74
24.9
18.59
13.62
10.86
10.99
14.21
20.05
27.51
35.35
42.51
48.39
52.86
56.17
58.59
60.22
60.82
59.89
56.87
51.49
43.98
35.15
26.19
18.25
12.08
7.74
4.64
1.9
-1.23
-5.03
-9.21
-13.25
-16.77
-19.83
-22.97
-26.82
-31.57
-36.72
-41.08
-43.17
-41.74
-36.18
-26.63
-13.88
0.92
16.4
31.21
44.21
54.92
64.1
73.92
87.73
108.8
138.77
176.16
216.24
252.13
277.19
287.3
282.15
264.93
240.55
213.57
186.55
159.77
132.07
102.1
69.44
35.02
0.94
-30.06
-55.17
-71.99
-78.94
-75.55
-62.49
-41.47
-14.79
15.02
45.64
75.08
101.79
124.59
142.57
155.13
161.86
162.59
157.65
148.39
137.6
129.3
127.47
134.27
148.53
165.59
178.92
182.8
174.75
156.38
132.3
107.85
86.91
70.96
59.44
50.89
43.77
36.6
27.54
14.15
-5.89
-33.34
-66.11
-98.95
-124.73
-136.91
-132.2
-112.03
-81.98
-49.61
-21.46
-0.8
13.06
23.89
36.39
54.04
77.69
105.33
132.98
156.32
172.55
181.5
185.55
188.35
193.04
200.86
210.73
220.03
225.88
226.16
219.82
206.64
186.73
160.45
128.69
93.33
57.21
23.68
-4.28
-25.07
-38.8
-47.16
-52.6
-57.42
-62.94
-69.25
-75.51
-80.66
-84.33
-87.28
-91.38
-98.91
-111.49
-129.48
-151.81
-176.56
-201.88
-226.94
-252.36
-280.12
-312.35
-350.24
-393.27
-439.14
-484.22
-524.18
-554.61
-571.69
-573.44
-560.35
-535.97
-506.51
-479.33
-460.37
-451.95
-452
-455.35
-457.06
-453.92
-445.46
-433.45
-420.44
-408.02
-395.99
-382.63
-365.98
-346.4
-324.66
-301.18
-275.83
-248.41
-219.08
-188.6
-158.26
-129.76
-106.98
-91.78
-82.98
-77.09
-70.1
-58.78
-41.17
-16.82
12.9
41.94
65.3
81.71
94.26
109.02
132.76
170.43
223.13
303.76
405.34
505.25
577.74
609.64
604.61
576.6
539.74
502.53
468.51
434.8
398.14
357.95
315
269.57
220.84
168.25
113.46
61.5
17.74
-10.99
-19.31
-7.21
18.03
44.05
58.94
57.09
41.9
22.32
10
14.07
37.24
75.31
120.06
163.34
199.92
227.58
244.65
249.36
239.67
214.4
174.57
124.07
68.84
15
-33.29
-75.05
-111.67
-145.16
-176.66
-206.03
-232.31
-254.8
-273.57
-289.3
-302.58
-313.1
-319.45
-319.64
-311.87
-295.36
-270.57
-239.18
-203.79
-167.67
-134.2
-106.16
-84.93
-69.81
-58.18
-46.33
-30.81
-9.59
17.46
48.89
82.4
115.43
145.44
170.05
187.31
196.37
197.92
194.26
188.52
183.41
180.23
178.47
176.49
172.58
166.01
157.32
148.04
139.99
134.68
133.01
135.32
141.39
150.53
161.55
172.87
182.77
189.78
192.91
191.74
186.28
176.56
162.34
143.03
117.85
86.26
48.42
5.73
-38.94
-81.41
-117.03
-141.82
-153.77
-153.4
-143.6
-128.56
-112.45
-98.22
-87.16
-79.06
-72.78
-67.03
-60.87
-53.97
-46.43
-38.53
-30.48
-22.31
-14.06
-6.07
0.91
5.86
8.23
8.46
8
8.63
11.26
15.1
17.85
16.85
10.65
-0.03
-12.52
-23.43
-30.06
-31.25
-27.25
-19.19
-8.57
2.85
12.86
18.92
18.96
12.62
2.17
-7.53
-10.64
-2.68
17.29
45.79
76.02
100.32
112.89
111.53
97.85
76.09
51.29
27.6
7.34
-9.08
-22.56
-34.31
-44.87
-53.57
-58.82
-58.99
-53.57
-43.97
-33.27
-25.05
-21.78
-23.7
-28.91
-34.44
-37.81
-38.12
-36.15
-33.54
-31.65
-30.8
-30.16
-28.36
-24.14
-16.95
-7.06
4.73
17.45
30.19
42.28
53.3
63.04
71.47
78.56
84.03
87.04
86.29
80.48
69.03
52.8
34.12
16.36
2.89
-3.63
-1.72
8.9
27.58
52.94
83.23
116.45
150.46
183.04
211.75
233.91
246.73
247.64
234.9
208.29
169.43
121.57
68.93
15.64
-35.04
-81.07
-121.34
-155.29
-182.63
-203.45
-218.47
-229.22
-237.67
-245.49
-253.18
-259.68
-262.88
-260.68
-252.14
-237.87
-219.73
-199.99
-180.52
-162.47
-146.38
-132.32
-119.86
-107.91
-94.76
-78.72
-58.96
-36.26
-12.98
7.44
21.68
27.58
24.92
15.44
2.35
-10.67
-20.52
-25.61
-26.12
-23.61
-20.07
-16.99
-14.69
-12.41
-8.88
-3.11
5.24
15.75
27.64
40.11
52.41
63.92
74.13
82.67
89.36
94.25
97.48
99.24
99.68
98.98
97.41
95.34
93.17
91.19
89.54
88.2
87.1
86.2
85.55
85.18
84.94
84.41
83
80.19
75.76
69.76
62.22
52.77
40.27
23.23
0.54
-27.62
-59.33
-91.25
-119.53
-140.98
-153.92
-158.4
-155.77
-148.11
-137.63
-126.16
-114.83
-103.98
-93.11
-81.47
-68.55
-54.67
-40.98
-28.84
-19.05
-11.4
-4.81
1.96
9.67
18.29
27.3
36.18
44.77
53.07
60.5
65.36
64.87
56.22
38.07
11.81
-18.55
-47.71
-71.09
-86.49
-94.3
-96.61
-95.73
-93.16
-89.37
-84.5
-79.09
-74.31
-71.35
-70.76
-71.92
-73.36
-73.43
-71.23
-66.96
-61.78
-57.23
-54.43
-53.48
-53.17
-51.34
-45.85
-35.63
-21.31
-5
10.74
24.1
34.67
43.22
50.71
57.46
62.92
66.16
66.78
65.2
62.42
59.25
55.93
52.27
48.2
44.24
41.31
40.05
40.28
41
40.91
39.28
36.37
33.2
30.82
29.54
28.72
27.12
23.66
18.13
11.56
6.05
4.14
7.87
17.97
33.34
51.17
67.74
79.53
84.38
82.13
74.58
64.86
56.42
51.96
52.85
58.89
68.67
80.19
91.52
101.29
108.97
115.01
120.95
129.34
143.33
165.79
198.1
239.14
284.95
329.46
366.09
389.54
397.23
389.56
369.31
340.36
306.34
269.71
231.45
191.56
149.97
107.62
66.93
31.42
4.52
-11.92
-18.51
-18.13
-14.69
-11.7
-11.17
-13.5
-18.29
-25.24
-34.66
-47.44
-64.44
-85.96
-111.36
-139.27
-167.79
-194.89
-218.61
-237.29
-249.65
-255.05
-253.64
-246.55
-235.74
-223.62
-212.31
-202.9
-195.06
-187.25
-177.51
-164.32
-147.31
-127.19
-105.26
-82.85
-60.91
-40.12
-21.12
-4.71
8.36
17.71
23.72
27.67
31.38
36.74
45.11
56.92
71.65
88.07
104.77
120.68
135.32
148.7
160.96
172.03
181.5
188.74
193.15
194.24
191.69
185.13
174.23
158.8
138.99
115.45
89.08
60.8
31.17
0.53
-30.72
-61.7
-90.96
-116.91
-138.52
-156.09
-171.35
-187.03
-205.8
-229.03
-256.08
-284.29
-309.96
-329.68
-341.48
-345.16
-341.88
-333.03
-319.28
-300.23
-275.06
-243.56
-207.18
-169.07
-133.22
-102.85
-79.22
-61.32
-46.71
-32.9
-18.56
-3.89
10.1
22.46
33.07
42.51
51.32
59.27
65.09
66.87
62.94
52.5
35.83
13.83
-12.51
-42.45
-75.18
-109.34
-142.63
-172.15
-195.25
-210.48
-218.02
-219.23
-215.6
-207.9
-195.91
-178.98
-157.08
-131.36
-104.05
-77.42
-52.68
-29.3
-5.25
22.04
54.37
91.81
132.33
172.33
207.53
234.27
250.49
256.32
253.89
246.42
237.12
228.29
220.96
215.11
210.34
206.47
203.77
202.9
204.59
209.08
215.66
222.23
225.32
220.72
204.69
175.51
134.58
86.38
37.37
-5.93
-38.71
-59.02
-68.06
-69.53
-68.47
-69.92
-77.82
-94.15
-118.75
-149.45
-182.77
-214.72
-241.51
-260
-268.19
-265.61
-253.68
-235.92
-217.32
-203.09
-196.66
-198.13
-203.97
-208.29
-205.09
-190.46
-163.76
-127.51
-86.15
-44.43
-6.45
24.71
47.02
59.5
62.4
57.41
47.37
35.48
24.17
14.32
5.27
-4.3
-15.07
-26.2
-35.31
-39.19
-35.13
-22.14
-1.62
23.07
48
70.26
89.16
106.24
124.12
144.66
167.62
190.33
208.7
218.92
218.64
207.43
186.25
156.8
121.11
81.68
41.81
5.53
-23.07
-41.06
-47.56
-43.98
-33.19
-18.39
-2.03
14.2
28.94
40.48
46.81
46.41
39.31
27.45
14.04
2.12
-6.91
-13.68
-20.04
-27.58
-36.3
-44.33
-48.7
-46.6
-36.52
-18.95
3.35
25.78
42.95
50.34
46.33
33.38
17.89
8.22
11.53
30.85
63.8
103.59
141.72
171.03
187.82
191.98
185.63
171.27
150.62
124.59
94.07
60.9
28.09
-0.84
-23.13
-37.99
-46.81
-52.46
-57.88
-64.95
-73.93
-83.73
-92.8
-99.89
-104.64
-107.63
-109.95
-112.64
-116.19
-120.26
-123.77
-125.4
-124.01
-119.04
-110.6
-99.32
-85.93
-70.94
-54.4
-36
-15.42
7.21
30.98
54.33
75.49
93.12
106.83
117.21
125.55
133.19
141.05
149.4
158.12
166.82
174.95
181.62
185.55
185.08
178.82
166.25
148.11
126.33
103.09
79.82
56.26
30.59
0.49
-35.1
-74.65
-114
-147.49
-170.03
-178.7
-173.43
-156.47
-131.24
-101.22
-69.4
-38.28
-10.03
13.54
31.38
43.44
50.75
55.04
58.16
61.54
65.99
71.76
78.59
85.9
93.01
99.44
105.12
110.36
115.62
120.96
125.85
129.15
129.77
127.12
121.56
114.08
105.64
96.51
85.95
72.49
54.71
31.99
4.96
-24.78
-55.11
-84
-109.96
-131.98
-149.31
-161.24
-167.13
-166.81
-160.97
-151.32
-140.28
-130.38
-123.51
-120.43
-120.92
-124.03
-128.54
-133.24
-137.05
-139.36
-140.12
-140.26
-141.52
-146.02
-155.33
-169.53
-186.92
-204.34
-218.19
-225.5
-224.67
-215.71
-199.96
-179.4
-156.13
-131.97
-108.39
-86.62
-67.8
-52.97
-42.96
-38.04
-37.76
-40.91
-45.94
-51.47
-56.71
-61.7
-66.95
-72.86
-79.1
-84.33
-86.46
-83.33
-73.48
-56.66
-33.83
-6.68
23.04
53.99
85.39
116.7
147.3
176.25
202.4
224.72
242.63
256.29
266.51
274.67
282.38
291.27
302.62
317.1
334.39
353.08
370.78
384.64
392.14
391.91
384.18
370.65
353.88
336.36
319.84
305.05
291.92
280.09
269.33
259.6
250.97
243.22
235.78
227.82
218.54
207.53
194.99
181.56
168.02
154.9
142.08
128.81
113.9
96.13
74.77
49.83
22.05
-7.45
-37.59
-67.71
-97.75
-128.11
-159.49
-192.77
-228.86
-268.41
-311.2
-355.47
-397.62
-432.69
-455.78
-463.76
-456.49
-436.92
-409.97
-380.76
-353.09
-328.79
-308.05
-290.19
-274.37
-259.85
-245.96
-231.91
-216.97
-200.7
-183.26
-165.29
-147.77
-131.71
-117.91
-106.81
-98.59
-93.13
-90.18
-89.34
-90.21
-92.46
-95.69
-99.4
-102.73
-104.61
-103.91
-99.85
-92.29
-81.84
-69.55
-56.53
-43.58
-31.12
-19.38
-8.6
1
9.35
16.81
24.29
33.16
44.77
60.02
78.81
99.86
120.85
139.01
151.9
158.2
158.23
153.76
147.35
141.34
136.85
133.43
129.43
122.89
112.54
98.38
81.61
64.05
47.47
33.16
21.9
14.09
9.89
9.04
10.69
13.24
14.59
12.77
6.69
-3.37
-15.78
-28.05
-37.67
-42.81
-42.57
-37.02
-26.96
-13.6
1.59
17.06
31.38
43.59
53.51
61.82
69.58
77.5
85.43
92.24
96.64
98.12
97.57
96.93
98.03
101.3
105.46
108.34
108.53
106.6
105.18
107.49
115.49
128.39
142.84
154.36
159.47
157.01
148.46
136.69
124.46
113.23
102.9
92.31
80.03
64.92
46.22
23.42
-3.82
-35.49
-70.85
-108.08
-144.4
-176.67
-202.51
-221.05
-233.18
-240.93
-246.35
-250.39
-252.33
-250.04
-241.02
-223.6
-197.9
-165.98
-131.18
-96.93
-65.42
-36.81
-9.25
20.2
54.12
93.32
136.3
179.86
220.21
254.3
280.33
297.46
305.24
303.23
291.23
270.01
241.78
210
178.25
149.07
123
98.86
74.62
48.54
20.05
-10.38
-41.84
-73.69
-105.92
-138.97
-173.15
-208.21
-243.23
-276.73
-307.18
-333.33
-354.24
-369.11
-377.13
-377.45
-369.4
-352.84
-328.35
-297.62
-263.21
-228.04
-194.7
-165.06
-140.22
-120.81
-107.25
-99.29
-96.45
-97.79
-101.74
-106.02
-108.08
-105.98
-98.89
-87.14
-70.94
-50.96
-28.52
-5.34
17.05
37.84
56.87
74.56
91.52
109.79
130.62
153.62
176.94
198.46
216.66
230.75
240.7
246.97
252.51
260.05
270.51
282.51
293.21
299.21
297.28
285.37
252.02
194.92
123.63
54.77
0.91
-35.17
-57.49
-71.37
-78.91
-80.01
-71.98
-54.39
-31.01
-8.76
5.97
10.6
5.04
-6.6
-18.56
-24.48
-21.49
-11.83
-1.68
2.16
-4.58
-21.95
-45.66
-68.88
-83.77
-85.41
-74.35
-56.67
-41.21
-35.3
-41
-53.74
-64.67
-64.83
-50.54
-25.58
0.6
17.81
19.92
6.91
-16.04
-41.66
-63.04
-75.24
-75.84
-64.87
-44.72
-19.66
5.41
26.56
42
51.82
56.66
56.27
49.17
34.33
13.32
-8.51
-23.19
-23.48
-6.52
24.41
61.31
94.86
118.08
128.08
125.38
112.01
89.7
60.11
26.06
-7.1
-31.81
-40.78
-30.46
-3.44
31.61
62.73
78.93
73.67
46.58
3.06
-47.72
-95.28
-130.36
-147.15
-144.76
-127.47
-103.45
-82.01
-70.61
-72.73
-87.49
-110.88
-137.37
-161.61
-179.48
-188.73
-189.23
-182.83
-172.64
-161.77
-151.9
-142.72
-132.33
-118.54
-100.25
-77.84
-52.42
-24.77
5.38
38.5
73.55
106.67
131.32
140.47
129.53
98.79
53.76
3.49
-42.72
-78.19
-100.16
-109.16
-107.23
-96.37
-78.16
-54.4
-28.14
-3.85
13.67
21.19
18.67
9.63
0.13
-3.57
2.57
18.73
41.11
63.41
79.32
84.89
79.94
67.91
54.19
43.9
40.06
42.9
50.54
60.38
70.32
79.46
87.8
95.65
102.78
108.29
111.05
110.43
106.89
101.94
97.58
95.4
96.09
98.99
102.47
104.72
104.65
102.35
98.94
95.75
93.61
92.8
92.7
92.18
90.21
86.27
80.54
73.55
65.94
58.21
51.95
48.29
47.53
48.94
51.3
53.45
54.54
54.08
51.94
50.77
52.97
59.71
70.63
84.56
100.29
116.79
132.98
147.92
164.97
186.92
214.48
245.79
277.83
308.25
336.08
361.15
383.34
406.84
433.3
460.45
482.69
494.65
494.25
483.36
466.11
415.56
319.62
184.63
34.61
-103.46
-213
-290.09
-338.55
-365.26
-377.11
-374.82
-359.04
-332.23
-299.56
-266.53
-237.33
-213.39
-194.61
-180.22
-165.33
-146.31
-122.1
-94.99
-68.29
-44.51
-24.72
-9.1
2.43
12.26
21.5
32.25
43.56
53.53
60.74
64.68
65.47
63.55
60.66
58.19
56.76
55.69
54.04
51.19
47.05
41.87
36.05
30.46
25.77
22.3
19.62
17.16
14.47
11.35
7.81
4.03
0.26
-3.27
-6.43
-9.46
-12.63
-16.25
-20.47
-25.3
-30.53
-35.86
-41.04
-46.02
-51.07
-56.66
-63.23
-71.04
-80.08
-90.04
-100.5
-111.05
-121.5
-131.94
-142.64
-154.06
-166.8
-181.52
-198.68
-218.07
-238.47
-257.53
-272.36
-280.41
-280.43
-273.04
-260.4
-245.39
-230.46
-216.98
-205.08
-194.11
-183.34
-172.44
-161.62
-151.32
-141.97
-133.69
-126.27
-119.32
-112.43
-105.31
-97.73
-89.43
-79.96
-68.81
-55.65
-40.52
-23.92
-6.55
11.27
29.82
50.42
74.92
104.73
139.61
177.33
214.06
245.67
269
282.52
286.64
282.95
273.2
258.56
239.48
216.2
189.26
159.64
127.95
94.77
60.49
25.32
-10.78
-47.88
-85.73
-123.7
-160.99
-198.39
-236.17
-273.77
-309.97
-343.83
-375.09
-404.01
-430.66
-455.21
-480.69
-508.19
-535.88
-559.6
-575.12
-579.87
-573.34
-556.37
-531.54
-506.88
-487.66
-474.36
-463.36
-450.41
-432.9
-409.94
-380.93
-346.53
-314.02
-287.9
-268.21
-251.79
-235.99
-220.5
-206.38
-193.79
-141.09
-32.22
119.1
277.68
412
508.08
566.68
591.39
597.18
594.79
585.18
570.25
554.78
545.06
544.12
549.37
554.16
551.39
534.58
497
439.78
371.12
301.81
239.54
186.27
139.33
94.97
49.73
1.69
-44.79
-81.49
-101.05
-101.07
-84.33
-57.5
-28.13
-3.58
8.23
4.78
-9.96
-29.93
-49.66
-67.14
-80.91
-88.63
-89.67
-82.82
-66.55
-40.61
-7.68
27.99
64.45
100.97
137.19
169.81
197.82
221.18
239.75
251.6
240.78
199.66
132.05
66.28
12.12
-26.44
-52.25
-64.79
-64.45
-53.16
-32.62
-6.47
19.68
37.5
43.62
39.32
29.36
18.47
9.82
5.96
7.17
11.94
16.26
18.93
20.26
21.24
21.66
20.65
18.54
16.05
13.91
11.12
7.24
1.6
-6.28
-16.74
-29.1
-41.19
-50.65
-56.08
-58.16
-58.01
-56.7
-54.6
-51.64
-47.6
-42.46
-36.94
-32.09
-28.61
-25.58
-20.68
-11.17
4.65
26.46
51.9
77.43
99.67
116.43
126.94
131.58
131.21
126.82
119.35
109.8
99.22
88.55
78.29
68.49
58.84
49.14
39.5
30.38
22.24
15.27
9.25
3.53
-2.54
-9.35
-16.9
-24.82
-32.64
-39.88
-46.3
-51.88
-56.75
-61.13
-65.16
-68.83
-71.87
-73.65
-73.41
-70.54
-64.76
-56.31
-45.81
-34.01
-21.52
-8.79
3.72
15.38
25.31
32.5
36.13
35.88
32.14
25.87
18.35
10.76
3.98
-1.43
-5.1
-6.7
-5.92
-2.57
3.09
10.18
17.29
22.89
25.93
26.18
24.24
21.09
17.59
14.23
11.23
8.86
7.52
7.42
8.08
8.11
5.57
-1.06
-11.86
-24.96
-37.02
-44.57
-45.61
-40.48
-31.77
-23.21
-18.01
-17.47
-20.38
-23.57
-23.27
-16.82
-3.76
14.02
33.2
50.68
64.9
76.28
86.72
98.19
111.48
125.36
136.75
141.63
136.48
119.63
91.88
56.43
17.87
-19.14
-51.03
-75.8
-93
-103.1
-106.98
-105.61
-99.96
-91.01
-79.78
-67.24
-54.31
-41.8
-30.58
-21.43
-14.83
-10.59
-7.57
-3.99
1.93
11.25
23.74
37.97
51.76
62.99
70.32
73.61
73.7
72.01
69.87
68.04
66.75
65.87
65.29
65.16
65.78
67.31
69.57
71.9
73.23
72.5
68.91
62.16
52.43
40.09
25.56
9.22
-8.36
-26.26
-42.98
-56.58
-64.99
-66.56
-60.65
-47.99
-30.63
-11.54
6.09
19.61
27.41
29.18
25.84
19.13
11.02
3.15
-3.7
-9.63
-15.4
-21.83
-29.32
-37.54
-45.57
-52.43
-57.68
-61.64
-65.24
-69.35
-74.32
-79.65
-84.29
-87.11
-87.41
-85.16
-80.96
-75.79
-70.76
-66.86
-64.85
-65.08
-67.46
-71.44
-76.18
-80.78
-84.68
-87.71
-90.02
-91.82
-93.17
-93.98
-94.1
-93.42
-91.85
-89.11
-84.62
-77.64
-67.55
-54.39
-39.09
-23.34
-9.07
2.19
9.77
13.93
15.42
15.06
13.56
11.5
9.56
8.44
8.64
10.14
12.18
13.52
13
10.26
6.09
2.33
1.12
4.05
11.45
22.27
34.55
46.22
55.86
63
67.97
71.46
73.95
75.5
75.87
74.88
72.78
70.27
68.23
67.22
67.21
67.53
67.3
65.87
63.11
59.45
55.54
51.98
49.02
46.53
44.12
41.38
38.03
34.09
29.82
25.61
21.89
18.9
16.64
14.85
13.07
10.83
7.74
3.75
-0.76
-4.95
-7.55
-7.21
-2.9
5.77
18.29
33.39
49.33
64.42
77.54
88.33
97.19
104.96
112.37
119.65
126.27
131.15
133.02
131.02
125.02
115.86
105.07
94.49
85.83
80.18
77.83
78.15
80.02
82.23
84.02
85.37
86.9
89.47
93.72
99.85
107.54
116.13
124.7
132.06
136.81
137.53
133.28
124.2
111.7
98.13
85.89
76.6
70.6
67.13
64.93
62.99
60.83
58.41
55.69
52.34
47.63
40.78
31.23
18.82
3.79
-13.46
-32.34
-52.02
-71.19
-87.96
-100.24
-106.09
-104.43
-95.18
-79.06
-57.13
-30.38
0.21
33.24
66.46
96.94
121.71
138.94
148.66
152.78
154.16
155.38
157.75
161.04
164.17
166.02
166.17
164.9
162.83
160.24
156.8
151.65
143.82
132.75
118.63
102.39
85.32
68.58
52.69
37.26
21.21
3.24
-17.58
-41.21
-66.58
-91.91
-115.4
-136.03
-153.99
-170.68
-188.08
-207.93
-230.86
-256.15
-282.18
-307.08
-329.8
-350.53
-370.64
-392.23
-417.69
-449.27
-488.61
-535.89
-588.58
-640.85
-684.17
-709.61
-711.07
-687.89
-645.49
-593.39
-541.79
-498
-464.63
-440.04
-420.17
-400.84
-379.03
-353.26
-323.18
-289.18
-252.12
-213.39
-174.76
-137.98
-104.51
-74.88
-48.47
-23.47
2.71
32.51
66.96
104.69
141.68
172.24
191.01
195.17
185.9
168.36
150.03
138
136.55
145.87
162.47
180.92
196
204.32
204.72
197.75
184.66
166.76
145.47
122.61
100.74
82.81
71.19
66.48
67.14
69.98
71.6
69.89
64.77
57.93
51.78
48.25
47.91
49.91
52.38
53.25
51.06
45.58
37.94
30.31
24.98
23.46
25.87
31.19
37.98
45.32
53.12
61.73
71.12
80.35
87.87
92.22
92.88
90.45
86.26
81.53
76.96
72.69
68.74
65.38
63.06
62.09
62.36
63.29
64.14
64.37
63.78
62.39
60.28
57.45
53.93
49.92
45.83
42.11
38.99
36.45
34.2
31.79
28.81
24.96
20.2
14.78
9.32
4.53
0.87
-1.84
-4.53
-8.51
-14.82
-23.47
-33.3
-42.32
-48.53
-50.71
-48.72
-43.29
-35.5
-26.28
-16.12
-5.23
6.16
17.6
28.36
37.54
44.45
48.81
50.91
51.49
51.44
51.38
51.4
51.09
49.69
46.74
42.31
37.15
32.33
28.72
26.51
25.12
23.49
20.5
15.5
8.29
-0.86
-11.47
-22.77
-33.59
-42.18
-46.36
-44
-33.71
-15.41
9.56
38.82
69.76
100.12
128.13
152.17
170.08
179.18
177.03
162.97
139.34
111.56
86.63
70.38
64.9
67.43
71.59
70.4
59.41
38.47
11.22
-17.09
-42.39
-63.26
-81.13
-98.76
-118.06
-138.73
-158.36
-173.76
-182.27
-182.58
-174.27
-157.52
-132.92
-101.78
-66.73
-31.74
-1.09
22.37
38.49
50.36
62.44
78.22
99.08
123.39
146.84
163.81
169.21
160.33
139.3
112.02
86.48
71.58
73.34
92.26
122.41
152.94
170.69
166.06
133.91
74.55
-3.55
-86.14
-157.33
-204.69
-222.85
-215.04
-187.27
-147.7
-104.02
-58.16
-7.79
50.87
119.84
197.79
280.12
365.42
451.8
517.86
540.66
507.44
426.85
323.5
233.52
160.56
101.94
54.32
14.68
-17.27
-39.99
-52.96
-58.67
-64.6
-79.75
-105.94
-140.46
-178.8
-213.66
-240.05
-255.95
-262.93
-268.14
-279.79
-299.39
-323.91
-348.65
-366.84
-374.99
-371.88
-340
-273.08
-179.65
-77.04
17.75
86.74
135.58
170.98
197.41
216.98
229.51
233.1
228.63
219.03
207.29
196.62
186.79
177.08
167.35
155.83
141.4
124.93
108.22
92.41
78.09
63.12
45.7
25.57
2.5
-22.67
-48.16
-72.2
-94.21
-114.74
-136.86
-164.12
-199.02
-242.35
-291.34
-338.93
-375.27
-390.97
-380.48
-344.7
-290.2
-226.17
-161.21
-100.39
-44.42
9.16
63.91
122.62
185.78
251.32
314.78
369.93
410.21
430.67
429.76
410.02
376.87
336.78
295.11
254.96
217.42
182.46
149.59
118.05
86.22
51.48
10.62
-39.07
-98.21
-164.18
-230.97
-290.42
-334.73
-359.24
-363.35
-349.97
-323.81
-289.44
-250.13
-207.68
-163.24
-118.18
-75
-36.13
-2.93
24.58
47.38
66.49
82.23
93.77
99.06
93.57
74
40.43
-3.12
-49.87
-92.51
-125.33
-145.75
-154.73
-159.31
-165.92
-177.2
-191.7
-206.11
-217.65
-224.95
-227.99
-227.72
-231.13
-242.89
-262.56
-285.78
-307.74
-326.25
-341.89
-356.94
-374.07
-402.41
-446.45
-502.51
-560.58
-609.55
-642.33
-657.2
-656.94
-601.37
-478.05
-307.11
-129.91
19.09
127.59
199.28
243.15
267.47
278.43
273.5
251.19
217.95
183.62
157.11
142.58
139.69
145.78
157.9
168.54
174.3
178.6
185.89
201.36
227.05
261.65
301.85
343.98
381.55
410.94
432.84
450.86
469.59
492.33
520.99
556.39
597.94
640.89
678.28
702.39
706.45
687.06
645.24
586.47
519.1
451.41
388.53
332.39
282.79
238.86
200.29
167.07
138.95
114.94
93.24
71.78
49.01
24.28
-2.17
-29.45
-56.81
-84.18
-112.41
-143.02
-177.34
-215.52
-255.65
-293.83
-325.16
-345.5
-353
-348.73
-336
-319.03
-301.47
-285.62
-272.53
-262.59
-255.88
-252.1
-250.22
-248.25
-243.78
-234.89
-221.21
-204.32
-187.41
-174.25
-167.82
-169.36
-178.07
-191.55
-206.78
-221.25
-233.69
-244.4
-254.69
-265.83
-277.95
-289.33
-296.81
-296.92
-287.52
-268.79
-243.18
-214.25
-185.07
-157.05
-129.83
-102.14
-72.81
-41.52
-8.58
25.5
60.44
95.98
131.48
165.67
196.79
223.3
244.18
258.75
266.06
264.29
251.12
224.79
185.55
136.32
82.11
28.45
-20.29
-61.73
-95.15
-120.56
-137.97
-147.4
-149.51
-146.24
-140.75
-136.54
-136.21
-140.55
-148.42
-157.51
-165.35
-170.19
-171.33
-168.98
-163.76
-156.39
-147.38
-136.97
-125.28
-112.47
-98.82
-84.85
-71.25
-58.75
-47.92
-39.11
-32.29
-27.22
-23.46
-20.57
-18.19
-16.12
-14.29
-12.68
-11.23
-9.75
-7.89
-5.2
-1.27
4.18
11.16
19.5
28.89
39.01
49.64
60.7
72.34
84.88
98.85
114.8
133.04
153.12
173.68
192.44
206.92
215.2
216.75
212.65
205.15
196.71
189.09
182.81
177.39
171.91
165.73
158.77
151.46
144.28
137.45
130.76
123.7
115.78
106.74
96.82
86.69
77.23
69.27
63.22
58.85
55.21
50.93
44.66
35.61
23.83
10.3
-3.23
-14.5
-21.05
-20.72
-12.35
3.34
23.41
43.03
56.94
61.53
56.31
44.33
30.71
20.52
16.49
18.3
23.36
28.62
32.29
34.47
36.58
40.09
45.46
51.81
57.63
61.74
64.01
65.35
67.08
70.05
74.05
77.97
80.31
80.07
77.15
72.29
66.64
61.29
56.95
53.89
52.11
51.42
51.44
51.6
51.15
49.39
45.98
41.13
35.64
30.59
27.02
25.49
25.94
27.69
29.7
30.97
30.96
29.92
29.13
30.61
36.45
47.83
63.84
80.99
93.6
95.51
82.32
53.4
12.41
-33.57
-76.19
-108.18
-124.99
-125.28
-110.33
-83.03
-46.89
-5.32
38.95
83.88
127.9
169.31
205.69
234.01
251.45
256.65
250.66
236.7
218.84
200.22
182.03
163.79
144.63
124.84
106.33
91.9
83.68
81.93
84.87
89.62
93.52
94.98
93.64
90.03
84.86
78.76
72.17
65.47
59
53
47.6
42.85
38.76
35.43
32.79
30.42
27.39
22.35
13.84
0.81
-16.88
-38.34
-61.64
-84.18
-103.31
-116.89
-123.87
-124.45
-120
-112.48
-103.95
-96.07
-89.9
-85.96
-84.46
-85.41
-88.71
-93.99
-100.62
-107.69
-114.27
-119.65
-123.5
-126
-127.75
-129.63
-132.58
-137.23
-143.45
-149.97
-154.43
-153.96
-146.1
-129.84
-106.1
-77.43
-47.12
-17.99
8.32
31.45
51.64
69.09
83.42
93.8
99.34
99.64
95.17
87.14
77.2
66.84
56.76
46.73
35.72
22.64
7.12
-9.92
-26.46
-40.12
-49.33
-54.08
-55.99
-57.53
-60.75
-66.32
-73.35
-80.06
-84.85
-87.16
-87.64
-87.36
-87.26
-87.74
-88.8
-90.56
-93.37
-97.71
-103.67
-110.58
-117.06
-121.69
-123.79
-123.61
-122
-119.5
-115.86
-110.17
-101.55
-89.64
-75.14
-59.49
-44.14
-29.9
-16.7
-4.13
7.86
18.7
28.23
36.38
43.23
49.04
54.22
59.26
64.51
69.95
75.32
82.08
91.57
104.02
118.01
131.24
141.68
148.33
151.35
151.75
153.69
160.81
174.23
191.81
209.65
224.35
234.38
240.16
243.43
249.89
264.42
288.58
319.82
353.4
385
412.03
433.39
425.03
372.28
276.61
157.36
40.13
-57.07
-128.41
-176.52
-207.32
-225.12
-231.81
-227.31
-213.16
-194.26
-177.63
-169.68
-174.4
-193
-221.68
-251.62
-272.56
-276.46
-260.3
-226.53
-181.83
