0
0
0
0
0
0
0
0
0
0
0
0.01
0.01
0
-0.03
-0.05
-0.05
0
0.13
0.36
0.66
1.01
1.37
1.72
2.06
2.4
2.79
3.24
3.8
4.42
5.06
5.66
6.2
6.68
7.15
7.68
8.31
9.14
10.09
11.04
11.88
12.56
13.14
13.76
14.65
15.96
17.91
20.32
22.9
25.38
27.58
29.57
31.68
34.32
37.81
42.54
48.15
54.1
59.83
64.97
69.58
74.14
79.34
85.71
93.76
103
112.62
121.73
129.77
136.75
143.3
150.75
157.77
166.64
177.95
191.79
206.97
220.57
228.25
225.36
208.53
176.87
132.76
80.05
23.07
-34.94
-92.44
-149.16
-205.23
-260.37
-313.74
-363.87
-409.83
-450.91
-486.5
-515.74
-537.23
-549.22
-549.96
-538.37
-514.21
-478.67
-433.88
-382.45
-327.02
-269.84
-212.63
-156.66
-102.95
-52.37
-5.9
35.58
71.43
101.35
125.5
144.38
158.69
169.15
176.37
180.75
182.57
182.07
179.51
175.23
169.65
163.18
156.15
148.81
141.3
133.69
126.02
118.33
110.69
103.16
95.8
88.68
81.83
75.25
68.95
62.95
57.25
51.86
46.78
42.03
37.59
33.45
29.61
26.07
22.81
19.83
17.11
14.67
12.48
10.54
8.83
7.35
6.07
4.97
4.05
3.27
2.62
2.09
1.65
1.3
1.01
0.79
0.61
0.47
0.37
0.29
0.23
0.19
0.16
0.15
0.15
0.16
0.17
0.19
0.22
0.25
0.29
0.33
0.39
0.45
0.5
0.53
0.51
0.47
0.42
0.38
0.38
0.42
0.5
0.59
0.67
0.71
0.72
0.73
0.77
0.87
1.04
1.27
1.5
1.69
1.8
1.85
1.89
2
2.26
2.68
3.22
3.74
4.13
4.29
4.26
4.16
4.19
4.53
5.24
6.19
7.13
7.76
7.91
7.63
7.2
6.98
7.34
8.36
9.81
11.18
11.91
11.6
10.18
7.95
5.37
2.83
0.45
-2.02
-5.02
-9.01
-14.27
-20.94
-28.99
-38.06
-47.16
-54.57
-58.12
-56
-47.64
-34.32
-18.88
-4.71
5.63
11.3
13.11
12.85
12.08
11.53
11.09
10.32
9.07
7.65
6.58
6.19
6.38
6.74
6.81
6.31
5.35
4.27
3.49
3.23
3.41
3.7
3.65
3
1.87
0.8
0.5
1.6
4.2
7.83
11.58
14.49
15.94
15.8
14.37
12.18
9.75
7.47
5.63
4.42
3.92
4.1
4.79
5.63
6.32
6.65
6.64
6.47
6.35
6.42
6.65
6.93
7.09
6.94
6.37
5.35
3.97
2.45
1.02
-0.09
-0.79
-1.18
-1.46
-1.9
-2.71
-3.93
-5.49
-7.24
-8.99
-10.58
-11.9
-12.91
-13.66
-14.29
-15.03
-16.12
-17.7
-19.75
-22.06
-24.25
-25.82
-26.28
-25.23
-22.5
-18.15
-12.57
-6.34
-0.09
5.62
10.44
14.19
16.82
18.39
18.99
18.78
17.95
16.8
15.6
14.61
13.97
13.79
14.05
14.66
15.45
16.17
16.58
16.5
15.93
14.94
13.66
12.2
10.57
8.77
6.82
4.84
3.01
1.47
0.26
-0.74
-1.73
-2.93
-4.42
-6.18
-8.08
-9.93
-11.58
-12.97
-14.18
-15.38
-16.81
-18.63
-20.78
-22.99
-24.8
-25.71
-25.3
-23.37
-19.95
-15.26
-9.7
-3.76
1.97
6.96
10.81
13.35
14.76
15.42
15.74
15.99
16.25
16.45
16.55
16.55
16.53
16.52
16.46
16.21
15.67
14.85
13.88
12.99
12.31
11.84
11.43
10.86
9.94
8.61
6.88
4.88
2.82
0.93
-0.59
-1.66
-2.35
-2.84
-3.35
-4.04
-4.95
-6.05
-7.28
-8.61
-9.99
-11.42
-12.87
-14.36
-15.89
-17.49
-19.11
-20.57
-21.59
-21.86
-21.16
-19.43
-16.76
-13.32
-9.34
-5.03
-0.66
3.43
6.92
9.5
11.05
11.61
11.37
10.64
9.75
9
8.61
8.68
9.16
9.85
10.51
10.9
10.95
10.75
10.46
10.27
10.2
10.16
9.96
9.43
8.51
7.26
5.88
4.56
3.48
2.64
1.98
1.37
0.67
-0.2
-1.24
-2.47
-3.85
-5.35
-6.89
-8.4
-9.76
-10.94
-11.98
-13.01
-14.14
-15.41
-16.68
-17.66
-17.99
-17.4
-15.77
-13.2
-9.86
-6.03
-1.96
2.06
5.72
8.71
10.77
11.82
11.97
11.51
10.77
9.99
9.26
8.54
7.79
7.01
6.33
5.85
5.66
5.73
5.94
6.17
6.34
6.42
6.38
6.17
5.69
4.87
3.74
2.4
1.04
-0.17
-1.1
-1.76
-2.24
-2.73
-3.46
-4.61
-6.25
-8.22
-10.21
-11.87
-12.96
-13.48
-13.74
-14.18
-15.14
-16.72
-18.68
-20.56
-21.86
-22.13
-21.07
-18.62
-14.93
-10.37
-5.49
-0.86
3.01
5.84
7.61
8.4
8.37
7.68
6.55
5.22
4.02
3.24
3.03
3.36
4.09
5
5.91
6.61
6.9
6.61
5.73
4.4
3.01
2.04
1.85
2.59
4.1
6.02
8
9.84
11.43
12.74
13.7
14.21
14.22
13.92
13.73
14.2
15.74
18.36
21.63
24.75
27.02
28.14
28.4
28.51
29.2
30.83
33.26
35.93
38.22
39.7
40.23
39.9
38.82
36.98
34.3
30.66
26.12
20.92
15.41
9.99
4.95
0.39
-3.73
-7.59
-11.37
-15.22
-19.16
-23.13
-26.91
-30.28
-33.1
-35.43
-37.62
-40.18
-43.67
-48.42
-54.41
-61.22
-68.25
-74.84
-80.65
-85.65
-90.21
-94.98
-100.72
-108.09
-117.44
-128.52
-140.33
-151.02
-158.19
-159.36
-152.62
-137.32
-114.49
-86.65
-57.26
-29.7
-6.4
11.66
24.7
33.47
38.48
39.64
36.52
29.09
18.33
6.31
-4.47
-11.95
-15.35
-15.19
-12.67
-8.86
-4.06
2.12
10.22
20.17
30.98
40.88
48.01
51.08
49.82
45.06
38.49
32.23
28.27
27.98
31.6
38.09
45.33
50.75
52.2
48.58
40.16
28.35
15.13
2.4
-8.48
-16.9
-22.88
-26.82
-29.3
-30.87
-31.81
-32.09
-31.34
-28.98
-24.34
-17.03
-7.17
4.37
16.03
25.97
32.69
35.66
35.62
34.32
33.85
35.79
40.69
47.92
56.14
63.9
70.13
74.31
76.31
76.03
73.26
67.77
59.55
49.03
37.08
24.77
13.05
2.56
-6.44
-13.86
-19.62
-23.54
-25.39
-25.06
-22.65
-18.57
-13.45
-7.96
-2.71
1.85
5.5
8.2
9.99
10.89
10.94
10.19
8.83
7.24
5.91
5.32
5.73
7.08
9.06
11.21
13.07
14.27
14.65
14.19
13.04
11.4
9.5
7.44
5.21
2.72
-0.19
-3.59
-7.4
-11.42
-15.3
-18.61
-20.88
-21.71
-20.95
-18.76
-15.66
-12.4
-9.75
-8.21
-7.97
-8.94
-10.87
-13.52
-16.68
-20.09
-23.37
-26.1
-27.87
-28.44
-27.77
-25.95
-23.15
-19.48
-15.08
-10.1
-4.87
0.2
4.56
7.69
9.16
8.79
6.73
3.52
0.04
-2.54
-2.97
-0.19
6.41
16.74
29.9
44.36
58.33
70.21
78.99
84.43
86.84
86.74
84.61
80.73
75.35
68.83
61.78
54.88
48.65
43.26
38.51
34.08
29.72
25.41
21.28
17.44
13.8
10.07
5.85
0.84
-4.97
-11.3
-17.55
-22.99
-26.86
-28.61
-28.02
-25.35
-21.2
-16.43
-11.86
-8.1
-5.47
-4.01
-3.65
-4.24
-5.62
-7.49
-9.46
-11.07
-11.86
-11.6
-10.28
-8.18
-5.7
-3.25
-1.1
0.57
1.71
2.33
2.51
2.32
1.86
1.15
0.12
-1.37
-3.41
-5.95
-8.65
-11.01
-12.52
-12.84
-11.9
-9.84
-6.92
-3.39
0.45
4.29
7.67
10.17
11.48
11.54
10.53
8.8
6.71
4.51
2.36
0.42
-1.21
-2.39
-3.09
-3.38
-3.4
-3.27
-3.06
-2.74
-2.29
-1.71
-1.11
-0.66
-0.6
-1.06
-2.07
-3.49
-4.99
-6.18
-6.64
-6.06
-4.31
-1.42
2.4
6.84
11.52
15.99
19.82
22.62
24.09
24.12
22.68
19.85
15.77
10.71
5.08
-0.58
-5.65
-9.66
-12.38
-13.94
-14.69
-15.02
-15.16
-15.14
-14.88
-14.34
-13.6
-12.96
-12.76
-13.25
-14.46
-16.17
-17.91
-19.14
-19.34
-18.24
-15.86
-12.59
-9.06
-5.99
-3.95
-3.28
-3.96
-5.67
-7.96
-10.3
-12.29
-13.65
-14.24
-14.01
-12.95
-11.11
-8.62
-5.67
-2.58
0.32
2.75
4.6
5.9
6.77
7.27
7.33
6.79
5.43
3.11
-0.18
-4.33
-9.09
-14.04
-18.63
-22.14
-23.91
-23.48
-20.9
-16.68
-11.68
-6.81
-2.68
0.46
2.64
4.02
4.71
4.7
3.98
2.61
0.8
-1.12
-2.81
-4.03
-4.74
-5.06
-5.25
-5.55
-6.12
-7.01
-8.14
-9.38
-10.66
-12.03
-13.64
-15.73
-18.44
-21.77
-25.5
-29.18
-32.2
-33.91
-33.77
-31.54
-27.43
-22.13
-16.65
-12.05
-9.09
-7.92
-8.1
-8.87
-9.57
-10.1
-11.04
-13.39
-17.99
-25.02
-33.72
-42.58
-50.01
-55.04
-57.84
-59.64
-62.24
-67.26
-75.52
-86.88
-100.5
-115.23
-129.66
-142.13
-150.8
-154.3
-152.63
-147.69
-142.89
-141.46
-144.42
-149.41
-151.47
-145.48
-128.91
-103.33
-73.62
-45.49
-22.9
-6.72
4.68
13.49
20.81
25.96
27.29
23.32
13.88
0.4
-14.53
-28.1
-38.18
-43.94
-46.02
-46.01
-45.6
-45.41
-44.29
-39.44
-27.76
-7.7
19.07
47.07
68.33
75.03
62.59
31.64
-11.81
-58.49
-98.87
-125.97
-136.76
-131.57
-112.86
-83.87
-48.25
-10.04
26.46
57.88
83.33
104.98
126.72
151.29
177.57
200.15
211.85
208.04
189.93
164.74
142.2
129.63
128.4
133.98
139.3
139.11
132.5
122.39
112.69
105.25
98.65
89.4
74.54
53.74
29.78
7.19
-10.12
-20.57
-25.03
-25.31
-22.45
-15.71
-3.07
17.13
44.66
76.67
108.52
135.41
153.98
163.12
163.85
158.48
149.62
139.55
129.96
121.9
115.86
111.91
109.79
109.15
109.81
111.89
115.74
121.73
130.04
140.4
151.79
162.42
169.66
170.34
161.43
140.93
108.83
67.46
21.06
-25.46
-68.02
-104.29
-133.74
-156.58
-172.69
-181.04
-180.2
-169.49
-150.13
-125.43
-100
-78.07
-62.12
-52.17
-46.17
-41.18
-34.55
-24.84
-11.95
3.11
18.71
32.95
43.94
50.01
50.04
43.67
31.56
15.27
-3
-20.98
-36.82
-49.39
-58.28
-63.59
-65.68
-65.09
-62.48
-58.62
-54.33
-50.32
-47
-44.57
-43.02
-42.25
-42.05
-41.99
-41.33
-38.94
-33.42
-23.48
-8.44
11.41
34.61
58.79
81.21
99.49
112.13
118.81
120.16
117.25
111.19
102.8
92.69
81.46
69.85
58.64
48.45
39.47
31.45
23.94
16.66
9.74
3.66
-1.02
-4
-5.39
-5.67
-5.48
-5.33
-5.49
-5.97
-6.62
-7.3
-7.93
-8.6
-9.57
-11.23
-13.98
-18.11
-23.59
-29.92
-36.2
-41.18
-43.6
-42.53
-37.64
-29.36
-18.79
-7.4
3.36
12.42
19.24
23.77
26.27
27.1
26.59
25.11
23.01
20.74
18.75
17.37
16.68
16.52
16.47
16.06
14.98
13.19
10.91
8.5
6.24
4.14
1.98
-0.6
-3.82
-7.56
-11.4
-14.79
-17.35
-19.06
-20.28
-21.55
-23.34
-25.9
-29.23
-33.17
-37.39
-41.39
-44.44
-45.57
-43.86
-38.72
-30.28
-19.45
-7.71
3.32
12.42
18.93
22.83
24.5
24.42
22.98
20.52
17.28
13.6
9.85
6.4
3.52
1.33
-0.25
-1.39
-2.23
-2.9
-3.41
-3.75
-3.99
-4.31
-4.97
-6.25
-8.25
-10.81
-13.55
-16.06
-18.04
-19.52
-20.79
-22.29
-24.48
-27.57
-31.41
-35.51
-39.04
-40.97
-40.37
-36.64
-29.84
-20.68
-10.43
-0.51
7.93
14.25
18.35
20.44
20.86
19.93
17.91
15.19
12.22
9.5
7.43
6.14
5.52
5.27
5.02
4.49
3.54
2.2
0.61
-0.96
-2.28
-3.27
-4.07
-4.97
-6.34
-8.37
-11.02
-14.02
-17.05
-19.84
-22.2
-23.92
-24.63
-23.79
-20.87
-15.51
-7.86
1.4
11.16
20.07
26.92
30.82
31.42
28.91
23.99
17.73
11.41
6.4
3.77
3.98
6.44
9.35
10.15
6.39
-3.1
-17.46
-33.91
-48.88
-59.44
-64.49
-64.95
-63.13
-61.53
-62.06
-65.72
-72.69
-82.65
-94.76
-107.71
-119.78
-129.15
-134.37
-134.77
-130.52
-122.49
-111.94
-100.31
-89
-79.18
-71.56
-66.15
-62.36
-59.33
-56.41
-53.45
-50.69
-48.35
-46.3
-44.04
-41.06
-37.23
-32.88
-28.5
-24.3
-20.08
-15.55
-10.92
-7.12
-5.35
-6.16
-8.63
-10.37
-8.49
-1.07
11.74
27.68
43.46
56.29
65.17
71.05
76.09
82.23
90.23
99.35
107.82
113.91
116.6
115.89
112.51
107.32
100.8
93.08
84.15
74.34
64.48
55.78
49.3
45.54
44.27
44.56
45.23
45.21
43.87
41.09
37.27
33.02
28.98
25.55
22.72
20.16
17.36
13.82
9.31
3.88
-2.03
-7.77
-12.62
-15.88
-17.05
-15.95
-12.74
-7.94
-2.35
3.16
7.85
11.28
13.35
14.19
14.06
13.18
11.75
9.94
7.97
6.11
4.63
3.64
3.13
2.86
2.59
2.17
1.61
1.07
0.76
0.73
0.86
0.85
0.32
-1.01
-3.18
-5.96
-8.95
-11.76
-14.08
-15.85
-17.26
-18.67
-20.5
-23.08
-26.49
-30.45
-34.31
-37.16
-38.03
-36.17
-31.38
-24.08
-15.22
-6.04
2.32
9.16
14.31
18.01
20.68
22.63
23.94
24.54
24.38
23.53
22.27
20.96
19.92
19.32
19.2
19.44
19.88
20.36
20.69
20.69
20.26
19.34
17.97
16.22
14.23
12.09
9.94
7.89
6.02
4.3
2.62
0.77
-1.42
-3.99
-6.82
-9.65
-12.25
-14.56
-16.76
-19.17
-22.13
-25.69
-29.54
-32.94
-34.94
-34.7
-31.75
-26.2
-18.75
-10.47
-2.41
4.63
10.3
14.58
17.56
19.35
19.99
19.52
18.18
16.35
14.58
13.3
12.72
12.8
13.27
13.85
14.25
14.36
14.12
13.53
12.64
11.52
10.3
9.06
7.83
6.54
5.07
3.34
1.31
-0.91
-3.19
-5.36
-7.31
-9.04
-10.62
-12.21
-14.05
-16.36
-19.25
-22.6
-25.92
-28.47
-29.41
-28.06
-24.16
-17.97
-10.25
-2.01
5.75
12.31
17.35
20.94
23.31
24.69
25.13
24.55
22.92
20.4
17.49
14.87
13.14
12.55
12.87
13.49
13.74
13.2
11.79
9.77
7.43
4.89
1.98
-1.65
-6.29
-11.89
-17.96
-23.71
-28.28
-31.13
-32.21
-31.9
-30.85
-29.63
-28.59
-27.86
-27.42
-27.28
-27.49
-27.99
-28.39
-27.88
-25.45
-20.21
-11.83
-0.7
12.22
25.75
38.87
50.88
61.3
69.62
75.21
77.44
75.98
71.01
63.31
54.02
44.21
34.68
25.72
17.36
9.52
2.29
-4.1
-9.32
-13.13
-15.56
-16.93
-17.7
-18.26
-18.75
-19.02
-18.75
-17.78
-16.21
-14.44
-12.96
-12.17
-12.2
-13.01
-14.56
-16.76
-19.42
-22.07
-23.94
-24.14
-22.05
-17.75
-12.08
-6.34
-1.82
0.71
1.18
-0.02
-2.3
-5.24
-8.64
-12.47
-16.59
-20.73
-24.41
-27.12
-28.49
-28.35
-26.9
-24.51
-21.58
-18.42
-15.15
-11.77
-8.27
-4.73
-1.4
1.47
3.74
5.53
7.18
9.16
11.75
14.9
18.13
20.73
21.94
21.2
18.44
14.11
9.22
5.06
2.82
3.17
5.92
10.05
14
16.27
15.97
12.95
7.75
1.05
-6.69
-15.39
-25.24
-36.29
-48.21
-60.2
-71.11
-79.76
-85.18
-86.87
-84.95
-80.1
-73.46
-66.26
-59.34
-52.71
-45.47
-36.04
-22.83
-5.06
16.63
40.2
62.81
81.76
95.32
103.02
105.49
103.96
99.9
94.82
90.16
87
85.55
84.87
82.92
77.38
66.71
51.11
32.58
14.17
-1.36
-12.65
-20.03
-25.03
-29.34
-33.99
-39.04
-43.98
-48.43
-52.7
-57.78
-64.67
-73.59
-83.54
-92.64
-99.08
-102.22
-102.96
-103.22
-104.74
-107.99
-111.85
-114.27
-113.4
-108.54
-100.45
-90.72
-80.82
-71.28
-61.56
-50.41
-36.61
-19.6
0.27
22
44.27
65.88
85.89
103.59
118.38
129.76
137.37
141.15
141.43
138.85
134.2
128.18
121.3
113.85
105.93
97.54
88.57
78.85
68.21
56.52
43.84
30.4
16.63
3.08
-9.63
-20.98
-30.58
-38.27
-44.07
-48.19
-50.94
-52.77
-54.14
-55.57
-57.45
-59.95
-62.82
-65.39
-66.62
-65.42
-61
-53.26
-42.86
-31.14
-19.66
-9.71
-1.97
3.55
7.31
9.83
11.4
12.02
11.49
9.66
6.51
2.31
-2.64
-7.99
-13.53
-19.09
-24.47
-29.38
-33.49
-36.56
-38.72
-40.5
-42.63
-45.57
-49.16
-52.47
-54.24
-53.59
-50.49
-45.87
-41.03
-36.8
-32.96
-28.21
-20.8
-9.4
6.25
25.22
45.92
66.79
86.84
105.68
123.02
137.98
148.74
152.86
148.34
134.76
113.93
89.53
65.78
46.01
31.62
22.15
16.18
12.46
10.42
10.08
11.41
13.81
16.08
16.79
14.95
10.29
3.34
-5
-13.84
-22.56
-31.03
-39.43
-48.08
-57.1
-66.21
-74.62
-81.3
-85.34
-86.39
-84.95
-82.19
-79.49
-77.79
-77.16
-76.82
-75.46
-71.94
-65.73
-57.15
-47.14
-36.95
-27.74
-20.29
-14.81
-10.83
-7.29
-2.81
3.73
12.62
23
33.01
40.45
43.67
42.27
37.16
30.13
22.96
16.74
11.61
7.01
2.35
-2.41
-6.58
-9.15
-9.43
-7.72
-5.24
-3.68
-4.32
-7.37
-11.94
-16.7
-20.84
-24.41
-28.12
-32.54
-37.39
-41.37
-42.36
-38.35
-28.23
-12.5
6.83
26.86
44.68
58.22
66.66
70.56
71.29
70.41
68.81
66.73
64.24
61.58
59.3
57.95
57.82
58.63
59.75
59.83
57.93
54.34
50.66
48.79
49.88
53.99
59.88
65.9
69.05
67.28
61.02
53.39
48.39
48.57
54.25
62.78
70.28
70.63
59.47
37.01
8.25
-20.09
-43.25
-59.41
-70.77
-80.85
-96.37
-123.18
-163.62
-215.93
-276.51
-341.54
-405.85
-463.98
-489.66
-463.41
-387.93
-289.28
-197.31
-128.61
-88.5
-65.08
-48.71
-33.91
-22.22
-17.08
-18.83
-23.56
-25.09
-18.58
-1.93
22.31
49.79
73.5
87.85
91.46
87.6
81.51
77.23
76.75
78.89
81.5
80.95
74.59
62.6
48.2
36.09
30.16
32.5
42.38
57.51
74.02
88.24
97.88
102.58
103.28
101.28
97.87
93.75
89.43
84.84
79.58
73.35
66.23
58.88
52.3
47.7
46
47.66
52.52
59.86
68.32
75.78
79.24
75.14
60.42
34.13
-1.23
-39.83
-74.17
-97.94
-108.43
-107.15
-98.42
-86.82
-74.98
-63.01
-49.71
-34.4
-18.1
-3.2
7.92
14.38
17.24
18.82
21.27
25.39
30.34
34.29
35.55
33.55
29.21
24.56
21.72
22.04
25.51
30.9
36.42
40.56
42.7
43.11
42.51
41.6
40.55
39.02
36.49
32.52
27.02
20.29
12.85
5.35
-1.43
-6.7
-9.65
-9.74
-6.91
-1.68
4.94
11.8
17.95
22.91
26.78
30.03
33.24
36.82
40.71
44.36
46.84
47.31
45.43
41.79
37.77
35.09
34.97
37.41
41.09
44.06
44.68
42.53
38.53
34.44
31.84
31.45
33.03
35.75
38.75
41.41
43.21
43.56
41.7
37.08
29.75
20.69
11.67
4.72
1.42
2.48
7.55
15.4
24.33
32.54
38.45
40.99
39.74
34.91
27.32
18.09
8.46
-0.26
-6.93
-10.6
-10.84
-7.82
-2.47
3.71
8.95
11.76
11.41
8.11
2.88
-2.9
-8.14
-12.45
-16.3
-20.74
-26.88
-35.41
-46.29
-58.76
-71.61
-83.65
-93.95
-102.06
-107.99
-112.1
-114.94
-117.05
-118.7
-119.65
-119.21
-116.22
-109.52
-98.28
-82.42
-62.66
-40.54
-17.99
3.04
20.96
34.87
44.54
50.35
53.05
53.56
52.76
51.39
50.03
49.09
48.82
49.25
50.24
51.45
52.47
52.91
52.5
51.12
48.85
45.84
42.3
38.48
34.56
30.62
26.63
22.43
17.88
12.88
7.52
1.98
-3.49
-8.74
-13.77
-18.66
-23.52
-28.38
-33.22
-38.09
-43.09
-48.42
-54.02
-59.42
-63.52
-64.91
-62.26
-54.86
-43.04
-28.16
-12.28
2.46
14.38
22.56
26.92
28.02
26.76
24.08
20.81
17.58
14.74
12.34
10
6.9
1.99
-5.57
-15.86
-27.72
-39
-47.19
-50.58
-49.06
-44.33
-39.19
-36.33
-37.23
-41.61
-47.7
-53.11
-55.64
-53.94
-47.64
-37.2
-23.74
-8.9
5.49
17.7
26.53
31.67
33.71
33.89
33.66
34.24
36.38
40.24
45.44
51.15
56.26
59.6
60.23
57.73
52.28
44.67
35.91
26.95
18.31
10.01
1.75
-6.72
-15.32
-23.48
-30.35
-35.09
-37.3
-37.04
-34.67
-30.48
-24.39
-16.06
-5.23
7.88
22.33
36.71
49.52
59.68
66.66
70.39
71.09
69.08
64.77
58.77
51.84
44.68
37.59
30.34
22.16
12.19
0.04
-13.75
-27.71
-39.75
-47.95
-51.18
-49.53
-44.12
-36.63
-28.67
-21.27
-14.86
-9.53
-5.39
-2.88
-2.54
-4.76
-9.33
-15.33
-21.38
-26.14
-28.9
-29.8
-29.72
-29.84
-31.05
-33.58
-36.94
-40.19
-42.32
-42.64
-40.98
-37.58
-32.89
-27.31
-21.09
-14.36
-7.28
-0.13
6.57
12.24
16.35
18.64
19.2
18.4
16.86
15.32
14.51
15.07
17.36
21.37
26.66
32.49
38.02
42.63
45.97
47.99
48.86
48.76
47.85
46.24
44.08
41.64
39.23
37.17
35.66
34.77
34.42
34.43
34.58
34.56
34.08
32.86
30.64
27.3
22.87
17.51
11.41
4.79
-2.2
-9.53
-17.23
-25.33
-33.86
-42.77
-51.98
-61.34
-70.68
-79.74
-88.15
-95.37
-100.78
-103.63
-103.07
-98.25
-88.35
-72.92
-52.14
-27.12
0.17
27.21
51.62
71.66
86.6
96.65
102.61
105.53
106.29
105.58
103.74
100.87
96.79
91.2
83.85
74.73
64.18
52.85
41.48
30.63
20.59
11.34
2.67
-5.62
-13.7
-21.64
-29.39
-36.8
-43.64
-49.67
-54.74
-58.93
-62.6
-66.25
-70.3
-74.72
-78.89
-81.64
-81.64
-77.92
-70.3
-59.48
-46.73
-33.51
-20.99
-9.94
-0.78
6.3
11.21
14.04
15.14
15.17
14.94
15.25
16.6
19.15
22.68
26.71
30.64
33.85
35.87
36.48
35.76
34.01
31.59
28.71
25.33
21.26
16.24
10.16
3.07
-4.86
-13.47
-22.67
-32.47
-42.85
-53.8
-65.19
-76.87
-88.49
-99.55
-109.38
-117.15
-121.95
-122.88
-119.18
-110.45
-96.92
-79.59
-60.17
-40.72
-23.11
-8.51
2.87
11.67
19.08
26.4
34.7
44.66
56.49
69.89
84.15
98.23
110.99
121.48
129.09
133.61
135.17
134.06
130.65
125.37
118.65
110.95
102.68
94.11
85.45
76.83
68.47
60.68
53.92
48.7
45.46
44.41
45.45
48.28
52.47
57.64
63.52
69.89
76.43
82.58
87.51
90.23
89.83
85.86
78.57
68.95
58.3
47.73
37.57
27.34
16.05
2.84
-12.54
-29.49
-46.93
-63.69
-78.96
-92.24
-103.21
-111.42
-116.33
-117.56
-115.22
-110.03
-103.04
-95.16
-86.83
-77.96
-68.16
-57.28
-45.6
-33.89
-23.13
-14.16
-7.47
-3.19
-1.15
-1
-2.34
-4.67
-7.46
-10.22
-12.53
-14.18
-15.12
-15.42
-15.22
-14.73
-14.14
-13.67
-13.46
-13.53
-13.8
-14.12
-14.39
-14.63
-15.01
-15.7
-16.85
-18.46
-20.36
-22.24
-23.72
-24.44
-24.14
-22.76
-20.51
-17.82
-15.31
-13.53
-12.83
-13.22
-14.43
-16.09
-17.84
-19.53
-21.05
-22.37
-23.35
-23.84
-23.79
-23.31
-22.7
-22.28
-22.24
-22.53
-22.84
-22.86
-22.37
-21.45
-20.39
-19.54
-19.12
-19.13
-19.41
-19.77
-20.04
-20.21
-20.33
-20.37
-20.23
-19.67
-18.51
-16.66
-14.28
-11.68
-9.23
-7.22
-5.79
-4.96
-4.63
-4.7
-5.01
-5.43
-5.83
-6.13
-6.35
-6.55
-6.84
-7.23
-7.6
-7.76
-7.54
-6.9
-6.04
-5.28
-5.01
-5.43
-6.49
-7.9
-9.31
-10.42
-11.13
-11.54
-11.85
-12.24
-12.8
-13.51
-14.32
-15.22
-16.2
-17.19
-18.03
-18.41
-18.03
-16.64
-14.23
-11.03
-7.46
-4.02
-1.14
0.91
2.02
2.29
1.89
0.98
-0.3
-1.84
-3.51
-5.14
-6.52
-7.42
-7.7
-7.39
-6.69
-5.93
-5.47
-5.57
-6.26
-7.32
-8.44
-9.28
-9.75
-9.97
-10.22
-10.78
-11.74
-13.05
-14.56
-16.15
-17.88
-19.82
-21.95
-23.94
-25.17
-24.84
-22.36
-17.55
-10.74
-2.74
5.44
12.83
18.73
22.8
25.06
25.79
25.35
24.11
22.39
20.52
18.81
17.53
16.63
15.73
14.04
10.72
5.21
-2.38
-11.27
-20.47
-29.35
-37.95
-46.93
-56.85
-67.61
-78.15
-86.78
-91.89
-92.57
-88.86
-81.44
-71.26
-59.27
-46.46
-33.99
-23.25
-15.6
-11.76
-11.48
-13.41
-15.56
-16.03
-13.62
-8.2
-0.59
7.86
15.8
22.32
27.07
30.22
32.19
33.39
33.99
34.06
33.59
32.66
31.45
30.16
28.95
27.88
26.99
26.3
25.86
25.69
25.72
25.83
25.83
25.6
25.07
24.18
22.81
20.77
17.89
14.12
9.7
5.09
0.87
-2.54
-4.96
-6.62
-7.95
-9.56
-12.04
-15.75
-20.73
-26.52
-32.22
-36.56
-38.21
-36.16
-29.96
-19.97
-7.26
6.57
19.85
31.17
39.65
45.09
47.78
48.33
47.37
45.44
42.92
40.13
37.45
35.27
33.95
33.59
33.97
34.59
34.87
34.38
33.07
31.22
29.37
27.91
26.96
26.27
25.34
23.64
20.92
17.27
13.09
8.94
5.27
2.24
-0.24
-2.54
-5.13
-8.37
-12.44
-17.18
-22.05
-26.18
-28.45
-27.79
-23.54
-15.77
-5.41
5.92
16.39
24.55
29.75
32.16
32.53
31.7
30.23
28.37
26.15
23.68
21.25
19.21
17.88
17.3
17.29
17.53
17.69
17.58
17.15
16.46
15.6
14.7
13.83
13
12.09
10.93
9.33
7.2
4.64
1.84
-0.96
-3.58
-5.97
-8.17
-10.27
-12.42
-14.82
-17.7
-21.29
-25.58
-30.22
-34.4
-37.04
-37.09
-33.91
-27.56
-18.79
-8.79
1.07
9.65
16.25
20.56
22.68
22.94
21.74
19.54
16.77
13.88
11.3
9.36
8.21
7.78
7.8
7.94
7.94
7.7
7.26
6.76
6.33
6.05
5.97
6.1
6.37
6.57
6.37
5.43
3.51
0.68
-2.71
-6.09
-8.92
-10.92
-12.1
-12.77
-13.42
-14.6
-16.73
-20.02
-24.32
-28.98
-32.92
-34.81
-33.51
-28.47
-20.01
-9.29
2.03
12.31
20.3
25.48
27.97
28.31
27.26
25.48
23.47
21.54
19.85
18.48
17.45
16.81
16.55
16.6
16.83
17.06
17.06
16.71
15.93
14.73
13.19
11.39
9.45
7.46
5.43
3.29
0.94
-1.72
-4.7
-7.82
-10.79
-13.27
-15.04
-16.07
-16.57
-16.92
-17.64
-19.18
-21.85
-25.6
-29.89
-33.69
-35.68
-34.66
-29.99
-21.94
-11.62
-0.65
9.33
17.24
22.63
25.68
26.85
26.62
25.28
23
19.96
16.45
12.95
9.94
7.89
6.99
7.18
8.17
9.53
10.88
11.95
12.62
12.88
12.72
12.08
10.92
9.24
7.11
4.72
2.27
-0.12
-2.42
-4.65
-6.8
-8.79
-10.47
-11.73
-12.59
-13.25
-14.08
-15.46
-17.69
-20.86
-24.68
-28.46
-31.13
-31.5
-28.69
-22.46
-13.48
-3.18
6.69
14.69
20
22.59
22.96
21.81
19.78
17.33
14.76
12.29
10.1
8.35
7.14
6.56
6.67
7.47
8.86
10.55
12.13
13.18
13.37
12.58
10.91
8.64
6.09
3.62
1.46
-0.29
-1.71
-3.01
-4.45
-6.16
-8.1
-10.05
-11.74
-13.02
-13.93
-14.74
-15.85
-17.61
-20.18
-23.47
-27.09
-30.3
-32.2
-31.83
-28.53
-22.18
-13.35
-3.25
6.65
15.01
21.01
24.47
25.75
25.45
24.08
21.98
19.3
16.16
12.82
9.7
7.29
5.96
5.85
6.78
8.33
9.99
11.31
11.96
11.8
10.84
9.21
7.14
4.91
2.77
0.86
-0.8
-2.38
-4.1
-6.13
-8.46
-10.83
-12.84
-14
-14.04
-13.04
-11.66
-10.96
-12.21
-16.25
-22.99
-31.14
-38.25
-41.28
-37.51
-25.38
-5.17
20.81
48.7
74.04
92.9
102.96
103.98
97.69
87.09
75.4
65.07
57.15
51.24
45.93
39.49
30.63
18.89
4.83
-10.26
-24.64
-36.7
-45.14
-49.35
-49.36
-45.85
-39.91
-32.75
-25.46
-18.75
-13.02
-8.35
-4.6
-1.47
1.45
4.6
8.17
11.85
14.92
16.43
15.82
13.12
8.94
4.05
-1.08
-6.33
-11.67
-16.73
-20.66
-22.38
-21.3
-17.72
-12.82
-8.14
-4.81
-3.2
-3.17
-4.45
-7.01
-10.93
-15.8
-20.4
-22.91
-21.69
-16.19
-7.49
2.16
10.34
15.63
18.04
18.68
18.76
18.75
18.15
16.04
11.9
6.24
0.44
-3.87
-5.68
-5
-2.74
-0.14
1.9
3.18
4.01
4.87
5.89
6.78
6.99
6.19
4.58
2.94
2.37
3.74
7.36
12.84
19.35
25.95
31.83
36.37
39.01
39.29
37.04
32.76
27.65
23.24
20.68
20.03
20.11
19.04
15.16
7.9
-1.95
-12.74
-22.74
-30.83
-36.68
-40.42
-42.34
-42.74
-42.04
-41.05
-40.83
-42.4
-46.16
-51.64
-57.54
-62.34
-64.97
-65.32
-64.31
-63.48
-64.37
-67.8
-73.56
-80.45
-86.62
-90.17
-89.72
-84.76
-75.75
-63.94
-50.89
-37.98
-25.96
-14.72
-3.35
9.52
25.11
43.84
64.8
85.44
101.98
110.3
107.29
92.18
67.22
37.18
7.84
-16.24
-33.45
-45.52
-56.25
-69.24
-85.86
-104.42
-121.33
-133.09
-138.19
-137.51
-133.41
-127.93
-121.6
-113.56
-102.78
-89.53
-75.81
-64.26
-56.3
-50.62
-43.32
-29.65
-6.73
24.6
59.68
91.99
115.78
128.18
129.76
123.35
112.33
99.34
86
73.39
62.66
54.96
50.93
50.11
50.81
50.76
48.04
41.85
32.68
21.86
10.89
0.88
-7.73
-15.07
-21.61
-27.76
-33.6
-38.66
-41.94
-42.17
-38.27
-29.93
-17.87
-3.71
10.49
22.95
32.63
39.42
43.75
46.18
46.98
46.11
43.43
39.16
34
28.99
25.09
22.76
21.76
21.35
20.72
19.39
17.35
14.99
12.77
10.95
9.59
8.52
7.56
6.52
5.23
3.46
0.99
-2.28
-6.21
-10.3
-13.8
-15.88
-15.95
-13.75
-9.54
-3.92
2.29
8.28
13.39
17.26
19.76
20.96
21.04
20.23
18.83
17.17
15.55
14.2
13.17
12.35
11.52
10.53
9.38
8.28
7.44
7.02
6.89
6.69
5.97
4.38
1.86
-1.29
-4.61
-7.6
-9.94
-11.62
-12.93
-14.34
-16.36
-19.36
-23.36
-27.94
-32.21
-35.1
-35.55
-32.96
-27.38
-19.54
-10.64
-1.97
5.46
11.16
15.08
17.56
18.94
19.56
19.56
19.04
18.17
17.19
16.45
16.2
16.46
17.01
17.53
17.69
17.4
16.82
16.22
15.84
15.77
15.92
16.01
15.75
14.93
13.42
11.3
8.81
6.28
4.05
2.26
0.72
-1
-3.37
-6.65
-10.64
-14.8
-18.47
-21.27
-23.23
-24.77
-26.5
-28.9
-32.2
-36.27
-40.72
-44.82
-47.65
-48.1
-45.29
-38.86
-29.29
-17.85
-6.28
3.83
11.52
16.63
19.65
21.25
21.95
21.98
21.39
20.34
19.13
18.26
18.06
18.6
19.61
20.6
21.19
21.26
20.99
20.68
20.52
20.42
20.08
19.16
17.47
15.12
12.42
9.77
7.39
5.26
3.13
0.72
-2.11
-5.3
-8.57
-11.63
-14.28
-16.52
-18.55
-20.69
-23.28
-26.59
-30.74
-35.51
-40.32
-44.17
-45.9
-44.47
-39.43
-31.14
-20.71
-9.67
0.49
8.74
14.68
18.5
20.7
21.89
22.51
22.83
22.85
22.51
21.68
20.45
18.99
17.67
16.79
16.46
16.59
16.92
17.2
17.26
17.01
16.34
15.04
12.87
9.69
5.64
1.19
-3.06
-6.61
-9.31
-11.38
-13.38
-15.87
-19.22
-23.41
-28.04
-32.49
-36.18
-38.77
-40.38
-41.57
-43.13
-45.79
-49.88
-55.17
-60.81
-65.45
-67.63
-66.1
-60.16
-49.93
-36.29
-20.8
-5.19
8.92
20.42
28.8
34.1
36.73
37.29
36.41
34.71
32.77
31.11
30.1
29.89
30.37
31.23
32.14
32.87
33.4
33.87
34.44
35.11
35.67
35.71
34.8
32.74
29.62
25.86
21.95
18.31
15.03
11.93
8.66
4.91
0.62
-3.96
-8.39
-12.24
-15.29
-17.67
-19.89
-22.68
-26.72
-32.35
-39.31
-46.59
-52.51
-55.12
-52.77
-44.74
-31.58
-15.09
2.22
17.9
30.25
38.67
43.53
45.71
46.12
45.4
43.9
41.8
39.39
37.03
35.13
33.95
33.5
33.53
33.67
33.61
33.21
32.58
31.97
31.62
31.54
31.51
31.07
29.81
27.56
24.56
21.25
18.12
15.4
12.98
10.49
7.57
4.02
-0.09
-4.44
-8.66
-12.42
-15.53
-18.08
-20.37
-22.91
-26.18
-30.43
-35.39
-40.29
-43.94
-45.17
-43.21
-37.96
-30
-20.4
-10.39
-1
7
13.31
17.88
20.86
22.44
22.75
21.87
19.93
17.26
14.34
11.73
9.91
9.09
9.18
9.88
10.82
11.68
12.24
12.31
11.79
10.7
9.16
7.41
5.68
4.02
2.34
0.39
-2
-4.89
-8.15
-11.6
-15.06
-18.41
-21.58
-24.53
-27.35
-30.26
-33.58
-37.5
-41.82
-45.81
-48.32
-48.2
-44.72
-37.87
-28.36
-17.32
-5.96
4.69
13.89
21.19
26.38
29.49
30.77
30.62
29.49
27.79
25.84
23.88
22.09
20.61
19.46
18.58
17.85
17.14
16.35
15.47
14.51
13.51
12.48
11.34
9.96
8.17
5.8
2.77
-0.85
-4.8
-8.7
-12.21
-15.18
-17.76
-20.38
-23.55
-27.69
-32.89
-38.82
-44.7
-49.5
-52.07
-51.52
-47.41
-39.98
-30.05
-18.83
-7.59
2.62
11.14
17.73
22.4
25.29
26.55
26.32
24.82
22.38
19.51
16.76
14.61
13.3
12.77
12.77
12.92
12.96
12.72
12.18
11.36
10.28
8.97
7.38
5.54
3.41
0.92
-1.97
-5.3
-8.97
-12.81
-16.59
-20.17
-23.43
-26.41
-29.25
-32.19
-35.61
-39.92
-45.32
-51.43
-57.13
-60.68
-60.18
-54.35
-43.11
-27.76
-10.59
5.87
19.64
29.76
36.3
39.95
41.52
41.63
40.52
38.3
35.12
31.41
27.75
24.82
23.07
22.57
23.06
24.01
24.92
25.39
25.26
24.48
23.11
21.3
19.18
16.95
14.67
12.31
9.66
6.49
2.69
-1.59
-6.01
-10.2
-13.95
-17.33
-20.6
-24
-27.75
-31.97
-36.83
-42.42
-48.62
-54.6
-58.82
-59.33
-54.48
-43.8
-28.4
-10.74
6.22
20.08
29.68
35.16
37.48
37.72
36.64
34.6
31.83
28.72
25.8
23.66
22.56
22.36
22.61
22.81
22.73
22.48
22.41
22.83
23.75
24.74
25.15
24.38
22.2
18.87
15.03
11.33
8.19
5.51
2.85
-0.35
-4.44
-9.31
-14.48
-19.28
-23.2
-26.06
-28.13
-30
-32.41
-36.02
-41.26
-48.04
-55.56
-62.24
-65.97
-64.67
-57.14
-43.64
-25.99
-7.09
10.09
23.47
32.3
37.1
39
39.11
38.11
36.27
33.76
30.87
28.13
26.08
24.99
24.76
24.91
24.94
24.54
23.81
23.08
22.73
22.87
23.2
23.18
22.27
20.23
17.17
13.55
9.85
6.42
3.34
0.39
-2.73
-6.32
-10.49
-15.03
-19.54
-23.51
-26.65
-28.97
-30.97
-33.36
-36.86
-41.89
-48.26
-55.11
-61.01
-64.16
-62.91
-56.26
-44.27
-28.3
-10.63
6.17
20.03
29.95
36.09
39.36
40.75
40.91
39.97
37.91
34.93
31.56
28.58
26.62
25.86
25.97
26.37
26.57
26.42
26.15
26.1
26.47
27.11
27.61
27.43
26.14
23.64
20.17
16.24
12.45
9.25
6.77
4.78
2.76
0.2
-3.15
-7.2
-11.5
-15.53
-18.91
-21.55
-23.71
-25.88
-28.66
-32.57
-37.84
-44.23
-50.89
-56.35
-58.87
-56.88
-49.61
-37.46
-22.02
-5.61
9.45
21.46
29.74
34.5
36.52
36.64
35.51
33.48
30.81
27.83
24.97
22.71
21.35
20.89
21.03
21.33
21.49
21.47
21.47
21.73
22.31
22.94
23.15
22.45
20.6
17.74
14.29
10.81
7.66
4.86
2.22
-0.61
-3.81
-7.34
-10.95
-14.33
-17.25
-19.67
-21.79
-23.9
-26.43
-29.72
-34.01
-39.18
-44.69
-49.54
-52.39
-52
-47.7
-39.64
-28.82
-16.82
-5.23
4.73
12.44
17.84
21.22
22.92
23.25
22.39
20.59
18.19
15.62
13.37
11.8
11.08
11.14
11.78
12.73
13.72
14.58
15.16
15.4
15.28
14.75
13.71
11.97
9.33
5.74
1.38
-3.26
-7.58
-11.07
-13.62
-15.51
-17.3
-19.57
-22.72
-26.86
-31.79
-37.07
-41.96
-45.5
-46.6
-44.34
-38.34
-29
-17.44
-5.26
6
15.19
21.76
25.69
27.3
27.05
25.41
22.82
19.72
16.5
13.48
10.88
8.81
7.35
6.51
6.31
6.69
7.48
8.39
9.06
9.08
8.14
6.07
2.94
-0.97
-5.27
-9.5
-13.36
-16.78
-19.97
-23.38
-27.43
-32.4
-38.03
-43.51
-47.51
-48.49
-45.25
-37.4
-25.68
-11.79
2.05
13.83
22.26
27.05
28.74
28.23
26.34
23.59
20.18
16.2
11.81
7.32
3.15
-0.33
-2.85
-4.39
-5.13
-5.47
-5.86
-6.76
-8.42
-10.81
-13.68
-16.65
-19.42
-21.95
-24.37
-27.03
-30.23
-34.24
-39.22
-45.14
-51.67
-57.95
-62.51
-63.53
-59.41
-49.52
-34.59
-16.69
1.49
17.52
29.92
38.37
43.37
45.74
46.13
44.98
42.61
39.45
36.05
32.97
30.63
29.12
28.21
27.57
26.87
25.95
24.85
23.74
22.8
22.06
21.33
20.17
18.08
14.64
9.8
3.95
-2.19
-7.83
-12.42
-15.85
-18.51
-21.11
-24.46
-29.27
-35.81
-43.75
-51.96
-58.56
-61.34
-58.42
-49.04
-34.02
-15.61
3.21
19.73
32.27
40.49
45.03
46.95
47.19
46.33
44.66
42.44
40.03
37.81
36.09
34.92
34.12
33.39
32.51
31.52
30.63
30.12
30.08
30.27
30.2
29.3
27.21
23.97
19.94
15.68
11.66
8.07
4.82
1.59
-2
-6.21
-11.08
-16.33
-21.46
-25.97
-29.55
-32.27
-34.69
-37.67
-42.1
-48.47
-56.58
-65.27
-72.53
-75.93
-73.36
-63.82
-47.97
-28.08
-7.38
10.97
24.92
33.9
38.68
40.63
40.98
40.41
39.1
37.14
34.79
32.57
31.06
30.49
30.69
31.14
31.3
30.88
29.99
28.96
28.21
27.88
27.79
27.45
26.29
23.92
20.32
15.9
11.33
7.32
4.25
2.01
0.02
-2.48
-6.05
-10.78
-16.24
-21.65
-26.26
-29.68
-32.05
-33.99
-36.34
-39.94
-45.32
-52.41
-60.4
-67.61
-71.89
-71.12
-64.01
-50.69
-32.9
-13.39
4.91
19.84
30.49
37.13
40.69
42.16
42.25
41.36
39.7
37.57
35.32
33.33
31.89
31.11
30.91
31.06
31.27
31.33
31.14
30.79
30.46
30.26
30.16
29.86
28.97
27.08
24.06
20.05
15.54
11.14
7.38
4.5
2.36
0.52
-1.67
-4.68
-8.67
-13.36
-18.2
-22.59
-26.15
-28.83
-30.94
-32.95
-35.45
-39
-44.04
-50.65
-58.35
-65.82
-71.03
-71.72
-66.24
-54.23
-37.01
-17.2
2.11
18.35
30.2
37.62
41.48
42.91
42.89
41.95
40.36
38.31
36.09
34.04
32.46
31.53
31.12
30.93
30.63
30.01
29.11
28.21
27.63
27.47
27.52
27.26
26.06
23.51
19.57
14.67
9.47
4.67
0.76
-2.11
-4.19
-6.01
-8.21
-11.26
-15.27
-19.94
-24.63
-28.75
-31.93
-34.25
-36.18
-38.42
-41.61
-46.09
-51.79
-58.12
-63.95
-67.74
-67.86
-63.05
-52.92
-38.29
-21.03
-3.54
11.96
24.02
32.17
36.74
38.43
38.03
36.15
33.35
30.17
27.16
24.78
23.28
22.59
22.41
22.34
22.11
21.61
20.98
20.38
19.94
19.59
19.06
17.98
16.03
13.11
9.39
5.28
1.22
-2.46
-5.71
-8.74
-11.9
-15.51
-19.64
-24.12
-28.56
-32.54
-35.79
-38.31
-40.47
-42.87
-46.15
-50.74
-56.6
-63.05
-68.78
-72.04
-71.12
-64.86
-53.08
-36.82
-18.09
0.67
17.25
30.21
39.02
43.92
45.52
44.56
41.76
37.83
33.54
29.65
26.73
25.03
24.36
24.25
24.23
24.04
23.71
23.51
23.62
24
24.3
24.02
22.74
20.35
17.11
13.55
10.24
7.5
5.27
3.22
0.87
-2.18
-6.02
-10.48
-15.16
-19.57
-23.38
-26.55
-29.37
-32.43
-36.37
-41.61
-48.08
-55.01
-60.95
-64.09
-62.75
-55.99
-44.02
-28.29
-11.06
5.21
18.59
28.21
34.17
37.24
38.33
38.08
36.77
34.49
31.4
27.92
24.69
22.3
21.1
21.1
22
23.35
24.69
25.73
26.29
26.28
25.63
24.34
22.44
20
17.11
13.85
10.3
6.48
2.49
-1.56
-5.54
-9.29
-12.75
-15.93
-18.94
-21.97
-25.22
-28.98
-33.46
-38.79
-44.79
-50.8
-55.56
-57.47
-55.03
-47.44
-35.08
-19.53
-3.14
11.83
23.78
32.11
37.01
39.01
38.6
36.14
32
26.77
21.34
16.71
13.62
12.29
12.41
13.31
14.3
14.93
15.07
14.83
14.48
14.14
13.83
13.33
12.28
10.29
7.11
2.77
-2.4
-7.76
-12.63
-16.53
-19.44
-21.75
-24.19
-27.5
-32.15
-38.11
-44.79
-51.15
-55.83
-57.39
-54.72
-47.34
-35.74
-21.32
-6.11
7.8
18.83
26.29
30.27
31.38
30.35
27.81
24.25
20.11
15.89
12.1
9.13
7.17
6.17
5.92
6.2
6.83
7.64
8.49
9.14
9.26
8.55
6.76
3.85
-0.05
-4.56
-9.19
-13.49
-17.19
-20.37
-23.4
-26.92
-31.49
-37.4
-44.28
-51.01
-55.92
-57.15
-53.32
-44.09
-30.42
-14.35
1.56
15.07
24.89
30.83
33.59
34.18
33.42
31.78
29.46
26.61
23.5
20.5
17.93
15.97
14.61
13.72
13.16
12.83
12.63
12.42
11.99
11.12
9.57
7.26
4.22
0.63
-3.26
-7.15
-10.86
-14.41
-18.08
-22.4
-27.88
-34.7
-42.39
-49.64
-54.56
-55.21
-50.36
-40.02
-25.61
-9.51
5.74
18.2
26.99
32.25
34.77
35.38
34.72
33.09
30.74
27.98
25.28
23.09
21.66
20.91
20.5
20.02
19.22
18.17
17.16
16.49
16.18
15.92
15.11
13.18
9.88
5.38
0.23
-4.92
-9.61
-13.65
-17.19
-20.54
-24.15
-28.49
-33.94
-40.63
-48.19
-55.46
-60.65
-61.75
-57.29
-47
-32.05
-14.81
2.01
16.2
26.65
33.4
37.26
39.19
39.9
39.73
38.79
37.23
35.34
33.56
32.19
31.34
30.82
30.32
29.62
28.71
27.82
27.27
27.24
27.6
27.98
27.86
26.84
24.77
21.72
17.93
13.63
9.01
4.21
-0.64
-5.36
-9.79
-13.8
-17.4
-20.73
-24.1
-27.92
-32.65
-38.64
-45.88
-53.76
-60.95
-65.62
-65.9
-60.58
-49.68
-34.61
-17.7
-1.51
12.04
22.08
28.79
32.95
35.4
36.76
37.3
37.17
36.56
35.79
35.19
34.98
35.11
35.32
35.29
34.82
34
33.18
32.77
33.01
33.74
34.39
34.19
32.53
29.24
24.69
19.65
14.93
11.02
7.92
5.22
2.28
-1.41
-6.01
-11.28
-16.65
-21.51
-25.43
-28.36
-30.67
-33.02
-36.13
-40.5
-46.27
-53.05
-59.89
-65.34
-67.7
-65.5
-57.96
-45.49
-29.62
-12.68
2.98
15.67
24.77
30.64
34.14
36.16
37.22
37.5
36.95
35.64
33.82
31.93
30.43
29.66
29.69
30.33
31.23
32.03
32.51
32.64
32.54
32.32
31.95
31.19
29.69
27.17
23.6
19.28
14.69
10.33
6.53
3.34
0.56
-2.13
-5.01
-8.23
-11.74
-15.37
-18.9
-22.14
-25.05
-27.72
-30.43
-33.55
-37.45
-42.39
-48.41
-55.18
-61.88
-67.26
-69.73
-67.89
-60.95
-49.16
-33.88
-17.21
-1.34
12.04
22.16
29.06
33.3
35.5
36.16
35.6
34.1
32.01
29.78
27.84
26.52
25.96
26.16
26.95
28.09
29.31
30.35
31.02
31.25
31.08
30.58
29.79
28.7
27.2
25.2
22.64
19.55
16.07
12.45
8.97
5.88
3.29
1.08
-1.03
-3.44
-6.41
-9.96
-13.82
-17.63
-21.09
-24.13
-26.97
-29.89
-33.23
-37.19
-41.88
-47.28
-53.18
-59.02
-63.79
-66.1
-64.55
-58.28
-47.43
-33.19
-17.56
-2.63
9.96
19.42
25.71
29.29
30.74
30.58
29.23
27.07
24.54
22.12
20.23
19.13
18.95
19.58
20.77
22.18
23.44
24.28
24.62
24.55
24.23
23.78
23.1
21.98
20.19
17.67
14.66
11.55
8.77
6.52
4.66
2.75
0.26
-3.13
-7.44
-12.27
-17.03
-21.1
-24.13
-26.17
-27.64
-29.18
-31.48
-35.01
-39.88
-45.77
-51.87
-57.02
-59.87
-59.17
-54.18
-44.91
-32.2
-17.55
-2.73
10.67
21.54
29.37
34.16
36.23
36.07
34.2
31.23
27.75
24.33
21.47
19.47
18.46
18.38
19.04
20.2
21.56
22.85
23.87
24.42
24.38
23.62
22.03
19.62
16.48
12.88
9.17
5.71
2.63
-0.17
-3.02
-6.25
-10
-14.15
-18.35
-22.24
-25.58
-28.41
-30.96
-33.61
-36.76
-40.75
-45.75
-51.58
-57.61
-62.68
-65.32
-64.09
-58.11
-47.44
-33.16
-17.13
-1.46
12.1
22.52
29.52
33.47
34.97
34.65
33.03
30.53
27.6
24.67
22.21
20.6
19.98
20.24
21.1
22.16
23.13
23.8
24.09
23.94
23.3
22.07
20.2
17.71
14.74
11.51
8.2
4.88
1.5
-2.07
-5.92
-10.04
-14.24
-18.27
-21.9
-25.04
-27.85
-30.76
-34.29
-38.92
-44.74
-51.25
-57.26
-61.14
-61.23
-56.45
-46.72
-33.07
-17.38
-1.81
11.85
22.51
29.9
34.32
36.35
36.56
35.41
33.27
30.49
27.5
24.77
22.7
21.48
21.08
21.22
21.54
21.78
21.81
21.67
21.5
21.32
21.02
20.34
18.97
16.63
13.2
8.78
3.64
-1.72
-6.77
-11.03
-14.35
-16.96
-19.45
-22.58
-26.9
-32.49
-38.84
-44.86
-49.21
-50.58
-48.11
-41.56
-31.5
-19.17
-6.16
5.92
15.82
22.89
26.96
28.26
27.27
24.52
20.59
16.13
11.76
8.01
5.15
3.2
1.99
1.31
1.05
1.18
1.71
2.57
3.47
3.98
3.66
2.12
-0.72
-4.64
-9.18
-13.84
-18.22
-22.2
-25.96
-29.94
-34.6
-40.18
-46.52
-52.92
-58.2
-60.98
-60.09
-54.97
-45.98
-34.31
-21.61
-9.55
0.71
8.59
14.03
17.21
18.3
17.45
14.83
10.82
6.08
1.5
-2.02
-3.86
-3.87
-2.4
-0.15
2.12
3.8
4.64
4.74
4.42
3.94
3.37
2.55
1.07
-1.46
-5.36
-10.71
-17.33
-24.69
-31.89
-37.73
-40.89
-40.27
-35.31
-26.32
-14.41
-1.27
11.37
22.1
30.18
35.45
38.1
38.45
36.77
33.37
28.69
23.43
18.47
14.64
12.43
11.83
12.31
13.06
13.35
12.77
11.3
9.27
7.01
4.72
2.32
-0.46
-4.01
-8.66
-14.63
-21.81
-29.67
-37.19
-42.94
-45.47
-43.72
-37.42
-27.22
-14.52
-1.06
11.57
22.23
30.37
35.91
39.11
40.34
39.94
38.23
35.49
32.06
28.31
24.67
21.52
19.07
17.36
16.24
15.5
14.93
14.35
13.56
12.35
10.51
7.92
4.62
0.83
-3.19
-7.23
-11.25
-15.43
-20.13
-25.73
-32.47
-40.1
-47.65
-53.55
-55.9
-53.16
-44.82
-31.69
-15.79
0.38
14.62
25.62
33.14
37.67
40.03
40.91
40.85
40.24
39.41
38.65
38.1
37.73
37.38
36.83
35.96
34.85
33.7
32.79
32.38
32.53
33.12
33.72
33.79
32.73
30.23
26.38
21.66
16.86
12.65
9.33
6.7
4.2
1.2
-2.69
-7.47
-12.76
-18
-22.74
-26.72
-30
-32.91
-35.98
-39.81
-44.93
-51.52
-59.21
-66.81
-72.53
-74.38
-70.82
-61.44
-47.21
-30.22
-12.99
2.28
14.33
22.93
28.59
32.11
34.17
35.18
35.37
34.92
34.11
33.26
32.63
32.35
32.36
32.48
32.46
32.21
31.83
31.54
31.59
32
32.53
32.66
31.88
29.88
26.76
22.96
19.1
15.71
12.99
10.76
8.53
5.75
2.09
-2.42
-7.38
-12.16
-16.23
-19.39
-21.84
-24.14
-26.94
-30.8
-36.05
-42.76
-50.57
-58.62
-65.47
-69.28
-68.3
-61.58
-49.43
-33.54
-16.42
-0.57
12.24
21.38
27.2
30.61
32.53
33.59
34.1
34.13
33.76
33.07
32.28
31.64
31.32
31.37
31.62
31.82
31.76
31.45
31.09
31.02
31.4
32.05
32.44
31.87
29.81
26.15
21.25
15.8
10.53
5.95
2.26
-0.7
-3.29
-5.89
-8.84
-12.27
-16.1
-20.05
-23.77
-26.96
-29.52
-31.54
-33.29
-35.11
-37.42
-40.64
-45.11
-50.82
-57.16
-62.76
-65.74
-64.3
-57.46
-45.56
-30.27
-13.99
1.01
13.24
22.29
28.58
32.83
35.63
37.27
37.86
37.45
36.27
34.69
33.11
31.85
31.06
30.72
30.68
30.8
31.02
31.32
31.75
32.29
32.83
33.2
33.15
32.45
30.98
28.74
25.86
22.53
19
15.5
12.15
9.04
6.13
3.27
0.3
-2.94
-6.53
-10.4
-14.34
-18.09
-21.43
-24.26
-26.66
-28.88
-31.27
-34.19
-37.96
-42.76
-48.49
-54.65
-60.19
-63.65
-63.48
-58.63
-48.97
-35.54
-20.22
-5.19
7.79
17.76
24.63
28.83
30.93
31.39
30.48
28.5
25.88
23.14
20.89
19.53
19.2
19.69
20.64
21.61
22.32
22.7
22.88
23.03
23.26
23.49
23.37
22.52
20.65
17.78
14.26
10.61
7.33
4.62
2.31
-0.02
-2.82
-6.33
-10.44
-14.72
-18.66
-21.87
-24.3
-26.23
-28.16
-30.63
-34.03
-38.53
-43.98
-49.86
-55.2
-58.68
-58.87
-54.65
-45.76
-32.99
-18.14
-3.43
9.18
18.52
24.46
27.52
28.49
28.01
26.4
23.83
20.5
16.83
13.37
10.7
9.23
9.09
10.11
11.97
14.24
16.58
18.66
20.22
21.05
20.92
19.68
17.32
14.05
10.23
6.32
2.69
-0.56
-3.55
-6.58
-9.92
-13.64
-17.57
-21.33
-24.55
-27.03
-28.89
-30.52
-32.56
-35.62
-40.1
-45.9
-52.23
-57.64
-60.34
-58.69
-51.87
-40.29
-25.52
-9.87
4.45
15.98
24.29
29.79
33.19
35.02
35.51
34.66
32.62
29.86
27.08
24.96
23.92
24.01
24.98
26.43
28.04
29.62
31.05
32.27
33.19
33.76
33.9
33.6
32.85
31.69
30.16
28.29
26.14
23.79
21.33
18.87
16.4
13.85
10.99
7.46
2.86
-3.2
-11.02
-20.68
-31.93
-44.2
-56.59
-68.14
-77.95
-85.49
-90.61
-93.49
-94.43
-93.66
-91.2
-86.87
-80.53
-72.22
-62.32
-51.53
-40.76
-30.9
-22.56
-15.91
-10.64
-6.07
-1.49
3.53
8.81
13.54
16.56
16.76
13.58
7.22
-1.41
-11.12
-20.94
-30.36
-39.27
-47.73
-55.59
-62.42
-67.64
-70.93
-72.45
-72.94
-73.44
-74.88
-77.76
-82.04
-87.19
-92.38
-96.63
-98.82
-97.86
-92.86
-83.44
-69.97
-53.54
-35.69
-18.01
-1.66
12.74
25.06
35.42
43.94
50.74
56.1
60.49
64.63
69.26
74.92
81.69
89.25
96.97
104.16
110.29
115.17
118.94
121.99
124.6
126.71
127.77
126.84
123.02
115.89
105.78
93.68
80.89
68.52
57.18
46.97
37.62
28.77
20.21
11.92
4.23
-2.26
-6.64
-8.02
-5.76
0.2
9.21
20.03
31.21
41.43
49.72
55.59
58.83
59.53
57.94
54.48
49.67
44.06
38.14
32.26
26.69
21.56
17.05
13.26
10.3
8.15
6.72
5.85
5.32
4.93
4.51
3.89
2.96
1.6
-0.28
-2.76
-5.97
-10.06
-15.12
-21.1
-27.72
-34.35
-40.19
-44.33
-46.03
-44.87
-40.92
-34.69
-27.05
-18.98
-11.44
-5.15
-0.47
2.49
3.89
4
3.14
1.62
-0.27
-2.31
-4.29
-6.06
-7.55
-8.72
-9.62
-10.37
-11.09
-11.87
-12.7
-13.45
-13.94
-14.01
-13.65
-13.02
-12.41
-12.09
-12.26
-12.9
-13.85
-14.82
-15.42
-15.21
-13.69
-10.39
-5.01
2.4
11.45
21.43
31.54
41.06
49.45
56.3
61.26
63.98
64.21
61.94
57.56
51.83
45.66
39.84
34.8
30.58
26.94
23.57
20.28
17.12
14.26
11.92
10.28
9.38
9.11
9.24
9.54
9.8
9.91
9.76
9.25
8.18
6.31
3.45
-0.45
-5.21
-10.41
-15.41
-19.54
-22.19
-22.99
-21.95
-19.44
-16.13
-12.77
-9.97
-7.98
-6.72
-5.95
-5.42
-5.12
-5.16
-5.66
-6.57
-7.63
-8.46
-8.81
-8.61
-8.03
-7.27
-6.53
-5.94
-5.66
-5.89
-6.86
-8.64
-11.11
-13.92
-16.67
-19.09
-21.11
-22.85
-24.48
-26.05
-27.53
-28.75
-29.55
-29.82
-29.55
-28.81
-27.73
-26.51
-25.32
-24.3
-23.52
-22.93
-22.47
-22.11
-21.85
-21.76
-21.91
-22.29
-22.77
-23.13
-23.16
-22.78
-22.05
-21.22
-20.63
-20.55
-21.13
-22.29
-23.84
-25.53
-27.12
-28.48
-29.53
-30.3
-30.87
-31.39
-31.96
-32.66
-33.41
-34
-34.13
-33.41
-31.52
-28.28
-23.79
-18.4
-12.7
-7.34
-2.9
0.32
2.28
3.15
3.21
2.69
1.77
0.62
-0.56
-1.54
-2.11
-2.18
-1.81
-1.26
-0.83
-0.77
-1.15
-1.92
-2.93
-4.02
-5.15
-6.35
-7.75
-9.38
-11.17
-12.83
-13.96
-14.13
-13.03
-10.6
-7
-2.58
2.23
7
11.34
14.89
17.31
18.4
18.08
16.57
14.23
11.53
8.84
6.37
4.16
2.17
0.43
-1.03
-2.15
-3.06
-4
-5.19
-6.78
-8.85
-11.38
-14.35
-17.72
-21.35
-25.08
-28.43
-30.6
-30.76
-28.32
-23.33
-16.37
-8.42
-0.45
6.57
12.18
16.42
19.61
21.92
23.25
23.32
21.99
19.39
15.33
10.2
5.01
0.92
-1.5
-2.59
-3.24
-4.43
-6.71
-11.4
-18.61
-26.89
-34.12
-38.95
-41.56
-43.22
-45.54
-49.69
-58.05
-71.02
-86.24
-99.79
-108.61
-111.73
-110.06
-105.59
-101
-102.03
-112.88
-133.92
-161.71
-190.76
-215.34
-230.52
-233.32
-205.96
-144.8
-63.24
16.54
78.99
120.45
144.13
154.37
154.6
147.1
131
107.61
81.53
58.72
43.19
35.45
33.83
35.66
38.63
39.35
36.54
31.4
26.35
22.95
21
19.3
16.61
12.32
5.33
-4.2
-14.5
-23.05
-28.02
-28.97
-26.62
-22.2
-16.77
-11.38
-5.97
0.74
10.52
24.46
42.25
62.15
81.54
97.77
108.73
113.72
113.53
109.93
104.78
99.41
94.48
90.17
86.52
83.64
81.62
80.41
79.66
78.77
77.13
74.39
70.56
65.99
61.14
56.37
51.84
47.53
43.27
38.83
33.93
28.18
21.21
12.73
2.77
-8.14
-18.91
-28.06
-34.03
-35.56
-32.08
-23.86
-11.89
2.38
17.44
31.97
44.95
55.68
63.67
68.62
70.46
69.44
66.09
61.17
55.5
49.72
44.19
39.02
34.11
29.35
24.65
20.02
15.56
11.41
7.72
4.59
2.02
-0.1
-1.97
-3.81
-5.72
-7.61
-9.23
-10.27
-10.56
-10.15
-9.37
-8.65
-8.37
-8.76
-9.9
-11.78
-14.27
-17.1
-19.67
-21.15
-20.57
-17.19
-10.87
-2.17
7.79
17.63
26.15
32.46
36.09
36.87
34.89
30.5
24.33
17.24
10.17
3.92
-1.03
-4.6
-6.98
-8.48
-9.44
-10.09
-10.56
-10.86
-10.97
-10.85
-10.6
-10.46
-10.76
-11.82
-13.72
-16.27
-19.07
-21.68
-23.87
-25.65
-27.25
-29
-31.14
-33.81
-36.95
-40.22
-42.99
-44.34
-43.24
-38.85
-30.9
-19.85
-6.86
6.49
18.64
28.39
35.05
38.44
38.8
36.71
32.87
28.04
22.87
17.86
13.33
9.46
6.35
4.01
2.35
1.18
0.29
-0.49
-1.24
-1.99
-2.83
-3.99
-5.77
-8.4
-11.89
-15.93
-20.06
-23.79
-26.93
-29.62
-32.3
-35.53
-39.76
-45.05
-50.84
-56.01
-58.96
-58.14
-52.53
-42.14
-28.07
-12.23
3.32
16.86
27.43
34.79
39.09
40.64
39.73
36.75
32.28
27.08
22.01
17.7
14.4
11.97
10.07
8.45
7.08
6.19
5.96
6.39
7.1
7.47
6.83
4.73
1.13
-3.62
-8.91
-14.13
-18.8
-22.75
-26.08
-29.21
-32.63
-36.85
-42.07
-48.02
-53.84
-58.12
-59.3
-56.06
-47.82
-35.08
-19.3
-2.5
13.26
26.43
36.23
42.55
45.67
46.03
44.07
40.28
35.26
29.78
24.59
20.33
17.29
15.44
14.49
13.99
13.53
12.82
11.72
10.27
8.67
7.16
5.85
4.64
3.12
0.83
-2.53
-6.89
-11.75
-16.45
-20.4
-23.45
-25.91
-28.42
-31.68
-36.14
-41.76
-47.99
-53.76
-57.72
-58.44
-54.84
-46.5
-33.9
-18.34
-1.72
14
27.22
37
43.1
45.86
45.89
43.86
40.36
35.86
30.8
25.66
21
17.29
14.84
13.61
13.23
13.14
12.82
11.99
10.72
9.29
8.01
7.01
6.12
4.94
3.03
0.12
-3.75
-8.22
-12.79
-16.96
-20.44
-23.23
-25.63
-28.04
-30.89
-34.52
-39.04
-44.21
-49.46
-53.79
-55.96
-54.71
-49.22
-39.4
-26.03
-10.69
4.7
18.33
28.94
36.04
39.75
40.61
39.28
36.31
32.2
27.4
22.45
17.87
14.15
11.55
10.09
9.53
9.55
9.79
10.02
10.14
10.09
9.85
9.31
8.33
6.72
4.39
1.38
-2.12
-5.81
-9.41
-12.73
-15.7
-18.33
-20.7
-22.88
-25
-27.33
-30.2
-33.98
-38.8
-44.38
-49.84
-53.83
-54.85
-51.72
-43.99
-32.19
-17.7
-2.4
11.84
23.6
32.17
37.45
39.8
39.76
37.85
34.55
30.33
25.7
21.25
17.49
14.77
13.18
12.54
12.57
13.01
13.66
14.37
14.96
15.12
14.61
13.26
11.21
8.72
6.13
3.6
1.04
-1.76
-5.01
-8.7
-12.58
-16.31
-19.68
-22.62
-25.29
-27.88
-30.58
-33.53
-36.86
-40.59
-44.51
-48
-49.97
-49.12
-44.38
-35.37
-22.78
-8.14
6.51
19.31
29.07
35.41
38.62
39.29
38.07
35.42
31.77
27.53
23.18
19.2
15.99
13.75
12.49
12.03
12.15
12.59
13.1
13.43
13.36
12.75
11.54
9.77
7.6
5.15
2.49
-0.36
-3.44
-6.77
-10.23
-13.66
-16.85
-19.67
-22.18
-24.49
-26.8
-29.35
-32.28
-35.7
-39.6
-43.68
-47.25
-49.23
-48.34
-43.59
-34.74
-22.52
-8.47
5.53
17.86
27.54
34.26
38.17
39.54
38.64
35.77
31.37
26.12
20.83
16.23
12.84
10.79
9.94
9.98
10.55
11.34
12.12
12.78
13.21
13.35
13.11
12.42
11.24
9.6
7.62
5.43
3.12
0.66
-2.05
-5.07
-8.37
-11.74
-14.94
-17.8
-20.31
-22.63
-25.04
-27.84
-31.28
-35.49
-40.37
-45.42
-49.65
-51.7
-50.19
-44.29
-34.14
-20.89
-6.39
7.47
19.22
28.15
34.16
37.43
38.25
36.86
33.6
28.96
23.67
18.49
14.16
11.16
9.69
9.59
10.44
11.68
12.78
13.44
13.61
13.49
13.31
13.09
12.6
11.49
9.44
6.41
2.58
-1.67
-5.92
-9.89
-13.39
-16.32
-18.69
-20.58
-22.24
-24.03
-26.37
-29.53
-33.57
-38.13
-42.47
-45.48
-45.96
-42.93
-36.05
-25.76
-13.28
-0.27
11.74
21.63
28.94
33.66
36.02
36.26
34.57
31.25
26.79
21.9
17.3
13.62
11.21
10.15
10.3
11.34
12.88
14.5
15.83
16.59
16.7
16.16
15.08
13.48
11.27
8.33
4.64
0.43
-3.83
-7.62
-10.6
-12.78
-14.55
-16.45
-18.96
-22.35
-26.6
-31.42
-36.32
-40.57
-43.17
-43.05
-39.35
-31.8
-20.96
-8.19
4.79
16.37
25.5
31.79
35.4
36.7
36.06
33.75
30.07
25.42
20.41
15.76
12.14
9.97
9.26
9.66
10.62
11.58
12.18
12.33
12.1
11.6
10.85
9.74
8.17
6.05
3.35
0.16
-3.39
-7.08
-10.57
-13.53
-15.74
-17.22
-18.35
-19.73
-21.94
-25.28
-29.57
-34.19
-38.25
-40.78
-40.9
-38.05
-31.99
-23.03
-11.96
-0.04
11.36
21.02
28.13
32.42
34.02
33.28
30.63
26.56
21.63
16.54
12
8.59
6.54
5.78
5.99
6.81
7.95
9.19
10.34
11.2
11.58
11.3
10.28
8.51
6.1
3.22
0.15
-2.77
-5.19
-6.96
-8.31
-9.87
-12.39
-16.39
-21.75
-27.59
-32.46
-34.77
-33.38
-27.93
-19.04
-8
3.57
14.18
22.83
29.09
33.05
35.07
35.52
34.64
32.53
29.24
24.95
20.01
14.92
10.17
6.18
3.17
1.13
-0.05
-0.58
-0.73
-0.77
-0.95
-1.47
-2.46
-3.95
-5.92
-8.32
-11.09
-14.27
-17.89
-21.99
-26.48
-31.04
-35.09
-37.89
-38.63
-36.75
-32.06
-24.88
-15.95
-6.28
3.1
11.28
17.56
21.46
22.78
21.56
18.14
13.12
7.26
1.41
-3.66
-7.39
-9.54
-10.22
-9.86
-9.06
-8.41
-8.27
-8.72
-9.54
-10.47
-11.3
-12.15
-13.39
-15.57
-19.13
-24.17
-30.29
-36.47
-41.28
-43.22
-41.17
-34.82
-24.78
-12.46
0.43
12.36
22.3
29.79
34.8
37.41
37.7
35.8
31.95
26.69
20.77
15.08
10.35
7.02
5.1
4.24
3.92
3.63
3.04
2.08
0.84
-0.55
-2.06
-3.81
-6.1
-9.27
-13.66
-19.44
-26.48
-34.28
-41.83
-47.68
-50.28
-48.37
-41.43
-30
-15.53
-0.03
14.56
26.82
36.14
42.54
46.35
47.96
47.62
45.51
41.93
37.45
32.84
28.94
26.31
25.09
24.93
25.22
25.27
24.66
23.27
21.31
19.17
17.18
15.44
13.76
11.72
8.84
4.86
-0.16
-5.85
-11.62
-16.97
-21.61
-25.52
-28.93
-32.18
-35.71
-40.01
-45.5
-52.29
-59.81
-66.72
-71.04
-70.77
-64.61
-52.52
-35.87
-16.95
1.69
18.06
31.03
40.38
46.45
49.79
50.92
50.19
47.96
44.71
41.06
37.69
35.14
33.66
33.05
32.89
32.77
32.49
32.19
32.11
32.32
32.59
32.43
31.28
28.87
25.29
21
16.55
12.44
8.86
5.73
2.7
-0.69
-4.79
-9.71
-15.2
-20.71
-25.61
-29.5
-32.35
-34.59
-36.94
-40.15
-44.82
-51.14
-58.72
-66.42
-72.41
-74.56
-71.05
-61.1
-45.47
-26.28
-6.4
11.54
25.81
35.88
42.19
45.54
46.75
46.37
44.79
42.38
39.61
37.01
35
33.79
33.26
33.1
32.9
32.42
31.64
30.83
30.36
30.48
31.08
31.68
31.54
30.04
26.89
22.38
17.17
12.08
7.7
4.19
1.24
-1.69
-5.08
-9.09
-13.54
-17.94
-21.89
-25.18
-27.9
-30.37
-33.01
-36.22
-40.35
-45.64
-52.04
-59.02
-65.38
-69.39
-69.23
-63.64
-52.48
-36.89
-19.02
-1.29
14.3
26.59
35.36
41.03
44.2
45.43
45.01
43.19
40.3
36.85
33.55
31.06
29.77
29.7
30.49
31.62
32.61
33.23
33.44
33.3
32.84
32.01
30.67
28.67
25.92
22.38
18.19
13.66
9.21
5.29
2.12
-0.41
-2.76
-5.51
-9.08
-13.45
-18.23
-22.78
-26.57
-29.37
-31.34
-32.94
-34.8
-37.53
-41.57
-47.07
-53.74
-60.73
-66.64
-69.77
-68.59
-62.2
-50.7
-35.27
-17.84
-0.6
14.6
26.61
35.03
40.16
42.61
43.06
42.11
40.23
37.82
35.23
32.74
30.56
28.86
27.7
27.09
26.98
27.28
27.89
28.68
29.5
30.14
30.36
29.89
28.47
25.95
22.32
17.82
12.87
8.08
3.99
0.93
-1.16
-2.78
-4.56
-7.16
-10.83
-15.35
-20.12
-24.44
-27.84
-30.23
-31.91
-33.44
-35.43
-38.43
-42.74
-48.3
-54.53
-60.2
-63.62
-63.06
-57.38
-46.49
-31.55
-14.58
2.18
16.89
28.52
36.74
41.72
43.84
43.53
41.28
37.76
33.67
29.76
26.56
24.38
23.24
22.98
23.31
23.93
24.58
25.15
25.66
26.17
26.7
27.08
26.97
26.01
23.95
20.83
16.96
12.86
9
5.69
2.98
0.63
-1.69
-4.35
-7.54
-11.18
-14.96
-18.46
-21.33
-23.51
-25.26
-27.13
-29.74
-33.48
-38.35
-43.83
-48.96
-52.49
-53.18
-50.12
-42.99
-32.27
-19.05
-4.89
8.62
20.18
28.98
34.74
37.56
37.75
35.69
31.78
26.52
20.45
14.24
8.5
3.8
0.54
-1.12
-1.28
-0.29
1.33
3.03
4.37
5.13
5.34
5.18
4.85
4.34
3.48
1.97
-0.35
-3.47
-7.09
-10.76
-14.09
-16.9
-19.23
-21.39
-23.75
-26.72
-30.51
-35.12
-40.17
-44.94
-48.41
-49.43
-47.08
-40.91
-31.17
-18.83
-5.31
7.86
19.37
28.39
34.52
37.74
38.21
36.26
32.4
27.31
21.79
16.67
12.59
9.89
8.5
8.12
8.28
8.59
8.84
8.98
9.06
9.06
8.81
7.99
6.2
3.16
-1.12
-6.32
-11.85
-17.05
-21.39
-24.74
-27.35
-29.87
-33.11
-37.74
-43.94
-51.3
-58.71
-64.56
-67.11
-64.97
-57.52
-45.11
-29.12
-11.63
5.17
19.42
30.03
36.76
40
40.44
38.79
35.64
31.49
26.79
22.02
17.55
13.64
10.39
7.77
5.73
4.31
3.56
3.5
3.95
4.48
4.48
3.3
0.44
-4.24
-10.47
-17.59
-24.71
-31.04
-36.15
-40.14
-43.69
-47.76
-53.28
-60.65
-69.48
-78.46
-85.65
-88.99
-86.87
-78.8
-65.47
-48.73
-30.97
-14.45
-0.67
9.84
17.32
22.42
25.65
27.22
27.07
25.28
22.26
18.86
16.18
15.08
15.91
18.37
21.67
24.84
27.12
28.03
27.47
25.52
22.3
17.94
12.53
6.23
-0.75
-8.14
-15.67
-23.28
-30.99
-38.96
-47.13
-55.02
-61.5
-65
-63.91
-57.28
-45.21
-29.05
-10.97
6.69
22.11
34.32
43.2
49.12
52.55
53.85
53.29
51.16
47.91
44.18
40.63
37.83
36.08
35.45
35.77
36.82
38.26
39.79
41.05
41.69
41.4
40.03
37.58
34.2
30.16
25.66
20.83
15.7
10.31
4.79
-0.68
-5.9
-10.76
-15.27
-19.6
-24.01
-28.77
-34.21
-40.69
-48.37
-57.01
-65.66
-72.64
-75.86
-73.56
-65
-50.84
-33.06
-14.22
3.33
18.06
29.42
37.59
42.98
46
46.92
46.12
44.15
41.73
39.57
38.16
37.59
37.66
38.01
38.36
38.67
39.03
39.65
40.56
41.56
42.21
41.91
40.17
36.83
32.16
26.85
21.73
17.46
14.23
11.7
9.18
5.96
1.64
-3.69
-9.51
-15.12
-19.92
-23.59
-26.23
-28.31
-30.59
-33.9
-38.94
-45.88
-54.07
-61.97
-67.37
-68.01
-62.44
-50.52
-33.62
-14.18
5.12
22.14
35.72
45.67
52.41
56.5
58.31
58.02
55.75
51.88
47.09
42.3
38.41
36.05
35.32
35.82
36.89
37.87
38.34
38.23
37.71
37.02
36.27
35.34
33.97
31.84
28.7
24.44
19.16
13.16
6.9
0.9
-4.42
-8.88
-12.59
-15.99
-19.67
-24.27
-30.23
-37.55
-45.62
-53.11
-58.11
-58.67
-53.43
-42.23
-26.3
-7.98
10.04
25.5
37.12
44.62
48.4
49.14
47.5
44.1
39.56
34.59
29.81
25.68
22.34
19.71
17.6
15.86
14.46
13.41
12.7
12.18
11.55
10.41
8.38
5.26
1.01
-4.06
-9.46
-14.68
-19.36
-23.49
-27.42
-31.75
-37.04
-43.56
-51
-58.37
-64.05
-66.16
-63.16
-54.45
-40.81
-24.27
-7.55
6.9
17.55
24.15
27.38
28.25
27.53
25.53
22.29
17.94
12.97
8.26
4.8
3.33
4
6.4
9.59
12.55
14.45
14.95
14.19
12.61
10.63
8.44
5.89
2.68
-1.42
-6.43
-12.02
-17.7
-22.86
-26.81
-28.82
-28.16
-24.36
-17.5
-8.34
1.68
10.94
18.15
22.67
24.64
24.59
22.99
19.97
15.37
9.08
1.37
-6.93
-14.6
-20.49
-23.93
-24.92
-24.13
-22.49
-20.86
-19.72
-19.13
-18.88
-18.83
-19.02
-19.83
-21.81
-25.5
-31.24
-39.09
-48.7
-59.13
-68.82
-75.59
-77.19
-71.95
-59.54
-41.32
-20
1.24
19.71
33.97
43.82
49.88
52.88
53.26
51.11
46.55
40
32.36
24.8
18.42
13.9
11.32
10.21
9.74
9.1
7.73
5.47
2.54
-0.67
-3.84
-6.89
-10.01
-13.64
-18.28
-24.39
-32.31
-41.99
-52.83
-63.45
-71.74
-75.34
-72.38
-62.29
-46.18
-26.57
-6.62
10.93
24.47
33.71
39.32
42.22
43.12
42.35
40.03
36.34
31.73
26.84
22.4
18.93
16.6
15.22
14.33
13.37
11.89
9.65
6.69
3.21
-0.55
-4.48
-8.64
-13.23
-18.53
-24.76
-32.03
-40.28
-49.17
-57.99
-65.53
-70.25
-70.51
-65.15
-53.9
-37.67
-18.29
1.97
21.07
37.62
50.98
61.11
68.22
72.59
74.56
74.56
73.16
71.01
68.6
66.18
63.7
60.95
57.75
54.12
50.34
46.87
44.15
42.36
41.35
40.52
39.05
36.09
31.13
24.25
16.07
7.6
-0.16
-6.65
-11.91
-16.55
-21.57
-27.98
-36.43
-46.88
-58.32
-68.84
-75.98
-77.4
-71.74
-59.17
-41.42
-21.31
-1.81
14.87
27.61
36.42
41.91
44.85
45.87
45.37
43.71
41.31
38.62
36.03
33.83
32.09
30.82
29.93
29.39
29.17
29.26
29.54
29.8
29.69
28.85
27.02
24.17
20.54
16.53
12.52
8.7
4.92
0.86
-3.8
-9.13
-14.85
-20.44
-25.45
-29.67
-33.26
-36.72
-40.69
-45.78
-52.41
-60.47
-69.14
-76.76
-81.06
-79.85
-71.8
-57.15
-37.78
-16.61
3.34
19.88
32.08
40.09
44.64
46.55
46.45
44.87
42.31
39.36
36.52
34.11
32.23
30.79
29.68
28.9
28.54
28.65
29.16
29.77
30.06
29.65
28.28
25.93
22.79
19.13
15.24
11.28
7.32
3.29
-0.9
-5.29
-9.81
-14.31
-18.59
-22.46
-25.85
-28.82
-31.58
-34.5
-38.12
-42.89
-48.95
-55.66
-61.55
-64.53
-62.63
-54.78
-41.42
-24.46
-6.58
9.73
22.85
32.33
38.51
42.03
43.39
42.89
40.8
37.57
33.8
30.09
26.87
24.26
22.18
20.51
19.21
18.39
18.18
18.62
19.55
20.55
21.09
20.65
18.94
16.04
12.31
8.35
4.68
1.58
-1.05
-3.54
-6.26
-9.46
-13.08
-16.86
-20.49
-23.73
-26.56
-29.11
-31.69
-34.7
-38.62
-43.83
-50.29
-57.24
-63.07
-65.62
-62.94
-54.1
-39.76
-22.04
-3.85
12.16
24.36
32.33
36.61
38.13
37.75
36.09
33.62
30.73
27.84
25.29
23.24
21.7
20.56
19.65
18.91
18.36
18.1
18.26
18.87
19.77
20.56
20.72
19.77
17.51
14.14
10.21
6.36
3.01
0.22
-2.32
-5.09
-8.44
-12.42
-16.73
-20.89
-24.43
-27.06
-28.86
-30.19
-31.68
-34.05
-37.91
-43.5
-50.34
-57.1
-61.79
-62.27
-57
-45.76
-29.87
-11.81
5.57
19.97
30.25
36.44
39.31
39.81
38.63
36.18
32.81
28.92
25.06
21.75
19.26
17.53
16.3
15.27
14.35
13.67
13.46
13.92
14.97
16.21
17.06
16.94
15.49
12.77
9.2
5.44
2.08
-0.51
-2.35
-3.79
-5.36
-7.52
-10.47
-14.07
-17.9
-21.46
-24.38
-26.53
-28.18
-29.87
-32.26
-35.94
-41.17
-47.65
-54.35
-59.58
-61.32
-57.79
-48.26
-33.42
-15.4
2.85
18.49
29.7
36.04
38.24
37.58
35.25
32
28.17
24
19.82
16.09
13.2
11.28
10.19
9.65
9.43
9.48
9.97
11.04
12.69
14.62
16.28
17.07
16.49
14.39
11.02
6.95
2.92
-0.47
-2.97
-4.79
-6.47
-8.67
-11.77
-15.77
-20.21
-24.44
-27.87
-30.27
-31.77
-32.91
-34.44
-37.1
-41.32
-46.98
-53.1
-57.93
-59.35
-55.51
-45.71
-30.77
-12.92
4.95
20.2
31.3
37.95
40.85
41.03
39.38
36.43
32.49
27.88
23.1
18.68
15.06
12.43
10.67
9.55
8.84
8.47
8.45
8.85
9.63
10.53
11.13
10.99
9.89
7.89
5.32
2.58
-0.06
-2.61
-5.3
-8.42
-12.04
-16.03
-20.03
-23.64
-26.63
-28.94
-30.75
-32.42
-34.4
-37.2
-41.18
-46.35
-52.1
-57.05
-59.25
-56.78
-48.52
-34.73
-17.23
1.17
17.55
29.87
37.44
40.86
41.39
40.18
37.92
34.76
30.63
25.69
20.42
15.58
11.86
9.59
8.72
8.79
9.27
9.69
9.84
9.74
9.49
9.2
8.82
8.19
7.04
5.14
2.33
-1.33
-5.59
-10.06
-14.28
-17.94
-20.88
-23.24
-25.29
-27.43
-30.05
-33.48
-37.89
-43.21
-48.92
-53.91
-56.56
-55.15
-48.44
-36.35
-20.17
-2.3
14.54
28.17
37.55
42.81
44.8
44.48
42.47
39.05
34.32
28.62
22.57
17.01
12.67
9.91
8.63
8.35
8.51
8.61
8.49
8.22
8.01
8.03
8.29
8.52
8.3
7.14
4.68
0.9
-3.91
-9.15
-14.15
-18.32
-21.48
-23.76
-25.66
-27.75
-30.58
-34.42
-39.24
-44.54
-49.34
-52.26
-51.75
-46.59
-36.39
-21.94
-5.11
11.58
25.87
36.29
42.48
44.91
44.35
41.46
36.69
30.42
23.25
16.1
10
5.72
3.53
3.08
3.68
4.61
5.39
5.92
6.4
7.09
8.11
9.29
10.12
9.93
8.12
4.45
-0.75
-6.67
-12.28
-16.73
-19.71
-21.52
-22.95
-24.92
-28.19
-33.03
-39.15
-45.65
-51.09
-53.74
-51.95
-44.73
-32.2
-15.76
2.23
19.12
32.76
42.03
46.89
48.03
46.31
42.53
37.24
30.97
24.4
18.36
13.58
10.49
9.02
8.7
8.91
9.12
9.1
8.92
8.84
9.04
9.47
9.79
9.46
7.94
4.96
0.72
-4.22
-9.07
-13.19
-16.31
-18.66
-20.82
-23.43
-26.98
-31.59
-37.01
-42.7
-47.73
-50.92
-50.92
-46.64
-37.58
-24.29
-8.36
7.98
22.44
33.4
40.14
42.84
42.21
39.15
34.44
28.79
22.79
17.06
12.15
8.42
5.97
4.66
4.17
4.15
4.34
4.59
4.84
5.06
5.06
4.56
3.2
0.76
-2.7
-6.77
-10.83
-14.33
-17.06
-19.25
-21.57
-24.79
-29.5
-35.79
-43.05
-49.91
-54.47
-54.76
-49.39
-38.14
-22.19
-3.91
13.87
28.72
39.2
45.08
47.01
46
42.96
38.56
33.28
27.57
21.91
16.76
12.46
9.15
6.8
5.32
4.62
4.57
5.02
5.74
6.33
6.28
5.12
2.56
-1.37
-6.26
-11.43
-16.19
-20.08
-23.1
-25.67
-28.54
-32.5
-38.05
-45.06
-52.57
-58.8
-61.47
-58.51
-48.82
-32.93
-13.03
7.66
25.93
39.58
47.93
51.62
51.95
50.11
46.83
42.44
37.2
31.61
26.4
22.28
19.65
18.37
17.93
17.62
16.96
15.81
14.42
13.21
12.53
12.4
12.43
11.88
9.97
6.13
0.39
-6.6
-13.74
-19.93
-24.53
-27.59
-29.82
-32.24
-35.86
-41.28
-48.49
-56.81
-64.78
-70.32
-71.17
-65.52
-52.79
-34.08
-12.05
9.89
28.66
42.45
50.99
55.2
56.37
55.52
53.14
49.4
44.48
38.82
33.12
28.09
24.18
21.53
19.96
19.16
18.79
18.59
18.35
17.96
17.35
16.52
15.44
14.07
12.28
9.88
6.73
2.81
-1.72
-6.52
-11.15
-15.28
-18.7
-21.43
-23.72
-25.99
-28.72
-32.35
-37.17
-43.19
-49.97
-56.42
-60.91
-61.48
-56.53
-45.48
-29.17
-9.82
9.7
26.7
39.47
47.51
51.25
51.49
49.03
44.44
38.29
31.33
24.48
18.64
14.39
11.77
10.47
10.01
10.01
10.34
11
11.97
13
13.68
13.47
11.92
8.81
4.26
-1.28
-7.12
-12.57
-17.13
-20.75
-23.83
-27.13
-31.46
-37.31
-44.43
-51.68
-57.22
-58.92
-55.05
-45.03
-29.68
-11.16
7.7
24.24
36.69
44.48
48.01
48.15
45.69
41.24
35.25
28.33
21.37
15.34
11.03
8.69
8.04
8.44
9.26
10.08
10.76
11.27
11.51
11.15
9.73
6.85
2.45
-3.15
-9.3
-15.28
-20.5
-24.8
-28.45
-32.09
-36.48
-42.29
-49.77
-58.41
-66.86
-73
-74.55
-69.76
-58.1
-40.66
-19.91
1.08
19.55
33.76
43.25
48.51
50.49
50.06
47.82
44.19
39.56
34.43
29.37
24.96
21.51
19.11
17.66
16.96
16.86
17.3
18.17
19.19
19.84
19.45
17.44
13.6
8.22
1.98
-4.26
-9.83
-14.49
-18.46
-22.37
-27.08
-33.39
-41.65
-51.33
-60.81
-67.54
-68.81
-62.76
-49.23
-30.08
-8.55
11.82
28.46
40.33
47.89
52.3
54.64
55.42
54.65
52.19
48.21
43.31
38.33
34
30.58
27.87
25.34
22.49
19.15
15.5
11.98
9.05
6.92
5.45
4.21
2.58
-0.02
-3.95
-9.26
-15.67
-22.63
-29.43
-35.47
-40.35
-44.08
-47.01
-49.76
-53.03
-57.43
-63.21
-69.97
-76.45
-80.62
-80.17
-73.3
-59.5
-39.95
-17.19
5.65
25.91
41.96
53.38
60.47
63.77
63.74
60.79
55.49
48.81
41.92
35.9
31.39
28.46
26.73
25.67
24.83
24.03
23.3
22.75
22.43
22.21
21.77
20.72
18.73
15.68
11.74
7.27
2.7
-1.7
-5.92
-10.25
-15.2
-21.23
-28.36
-35.95
-42.63
-46.59
-46.21
-40.65
-30.32
-16.78
-2.21
11.3
22.37
30.51
35.91
38.96
39.95
38.88
35.65
30.4
23.69
16.58
10.3
5.95
4.04
4.39
6.18
8.28
9.77
10.17
9.56
8.31
6.83
5.22
3.27
0.56
-3.34
-8.69
-15.59
-23.87
-33.03
-42.02
-49.27
-52.93
-51.42
-44.08
-31.62
-16.02
0.11
14.43
25.52
33.17
37.92
40.53
41.42
40.57
37.82
33.21
27.26
20.88
15.04
10.42
7.22
5.13
3.61
2.11
0.37
-1.62
-3.64
-5.42
-6.82
-7.94
-9.18
-11.09
-14.26
-19.21
-26.18
-35.01
-45
-54.85
-62.77
-66.86
-65.7
-58.81
-46.95
-31.88
-15.81
-0.79
11.89
21.64
28.52
32.73
34.4
33.53
30.26
25.01
18.65
12.37
7.35
4.39
3.6
4.46
5.98
7.15
7.27
6.16
4.12
1.62
-0.98
-3.59
-6.37
-9.62
-13.58
-18.41
-24.23
-31.03
-38.6
-46.27
-52.75
-56.37
-55.48
-49.19
-37.75
-22.65
-6.11
9.63
22.92
33
39.81
43.75
45.34
45.06
43.46
41.12
38.63
36.48
34.86
33.71
32.75
31.75
30.66
29.62
28.9
28.62
28.63
28.5
27.59
25.4
21.71
16.71
10.89
4.87
-0.88
-6.13
-10.95
-15.74
-21.04
-27.4
-35.1
-43.91
-52.84
-60.32
-64.47
-63.77
-57.63
-46.6
-32.33
-16.93
-2.39
9.98
19.66
26.79
31.85
35.27
37.35
38.23
38.05
37.03
35.51
33.9
32.55
31.64
31.13
30.87
30.67
30.46
30.27
30.2
30.24
30.22
29.84
28.75
26.73
23.7
19.75
15.05
9.84
4.39
-1
-6.05
-10.59
-14.68
-18.57
-22.72
-27.62
-33.64
-40.8
-48.64
-56.14
-61.92
-64.5
-62.81
-56.55
-46.34
-33.53
-19.69
-6.27
5.79
15.98
24.08
29.99
33.68
35.26
35.13
33.91
32.33
30.97
30.16
29.93
30.11
30.49
30.94
31.44
32.05
32.84
33.78
34.77
35.53
35.74
35.1
33.41
30.7
27.18
23.24
19.22
15.38
11.77
8.25
4.57
0.52
-3.98
-8.75
-13.43
-17.59
-20.92
-23.4
-25.31
-27.23
-29.89
-33.92
-39.65
-46.78
-54.34
-60.75
-64.18
-63.16
-57.07
-46.43
-32.74
-18.05
-4.23
7.42
16.42
22.83
27.02
29.31
30
29.39
27.91
26.09
24.46
23.34
22.76
22.58
22.56
22.58
22.73
23.15
23.96
25.06
26.17
26.9
26.92
26.05
24.32
21.92
19.11
16.14
13.17
10.24
7.23
3.97
0.31
-3.74
-7.99
-12.1
-15.73
-18.75
-21.27
-23.66
-26.42
-30.01
-34.68
-40.28
-46.16
-51.19
-54.01
-53.36
-48.56
-39.74
-27.94
-14.74
-1.84
9.41
18.22
24.45
28.28
30.09
30.3
29.3
27.47
25.21
22.87
20.74
19.02
17.85
17.28
17.33
17.98
19.11
20.53
21.98
23.17
23.85
23.81
22.92
21.16
18.67
15.71
12.61
9.61
6.76
3.93
0.87
-2.6
-6.43
-10.4
-14.17
-17.49
-20.25
-22.58
-24.74
-27.12
-30.17
-34.26
-39.39
-45.05
-50.01
-52.7
-51.66
-46.17
-36.63
-24.43
-11.44
0.69
10.88
18.78
24.46
28.16
30.02
30.11
28.62
25.89
22.49
19.02
16.05
13.93
12.8
12.59
13.13
14.18
15.51
16.87
17.96
18.49
18.17
16.87
14.69
11.95
9.12
6.56
4.36
2.35
0.2
-2.37
-5.46
-8.9
-12.37
-15.57
-18.32
-20.62
-22.61
-24.62
-27.07
-30.4
-34.84
-40.14
-45.37
-49.04
-49.58
-45.91
-37.91
-26.58
-13.62
-0.88
10.17
18.77
24.77
28.38
29.9
29.61
27.75
24.69
20.87
16.83
13.05
9.96
7.83
6.75
6.65
7.31
8.4
9.59
10.57
11.21
11.43
11.25
10.69
9.73
8.27
6.21
3.48
0.11
-3.7
-7.63
-11.3
-14.39
-16.78
-18.6
-20.19
-22.06
-24.68
-28.35
-33.12
-38.64
-44.11
-48.4
-50.2
-48.41
-42.55
-33
-21
-8.29
3.43
12.96
19.82
24.16
26.4
26.93
26
23.79
20.59
16.92
13.41
10.58
8.7
7.64
7.05
6.57
6.04
5.52
5.23
5.33
5.84
6.56
7.13
7.16
6.32
4.49
1.77
-1.52
-4.96
-8.15
-10.86
-13.12
-15.08
-17.03
-19.22
-21.83
-24.93
-28.37
-31.72
-34.24
-34.94
-32.89
-27.59
-19.2
-8.65
2.69
13.31
21.99
28.01
31.13
31.57
29.75
26.24
21.64
16.52
11.38
6.68
2.8
0.1
-1.2
-1.05
0.31
2.38
4.49
5.94
6.25
5.22
2.96
-0.15
-3.64
-7.05
-10.12
-12.79
-15.24
-17.76
-20.78
-24.64
-29.51
-35.22
-41.12
-46.14
-48.99
-48.6
-44.52
-37.1
-27.5
-17.19
-7.55
0.54
6.8
11.32
14.28
15.76
15.75
14.35
11.91
9.16
6.96
6.03
6.73
8.82
11.66
14.41
16.38
17.25
17.09
16.2
14.88
13.21
11.01
7.95
3.72
-1.88
-8.85
-16.99
-25.83
-34.52
-41.82
-46.26
-46.54
-42.06
-33.25
-21.58
-8.99
2.63
12.12
19.09
23.79
26.62
27.87
27.59
25.83
22.83
19.17
15.57
12.73
11.01
10.31
10.15
9.84
8.83
6.89
4.09
0.79
-2.66
-6.01
-9.23
-12.46
-15.92
-19.84
-24.31
-29.32
-34.6
-39.59
-43.52
-45.52
-44.8
-40.99
-34.23
-25.17
-14.77
-4.08
6.02
14.94
22.4
28.36
32.84
35.88
37.44
37.52
36.22
33.88
31.09
28.5
26.61
25.65
25.48
25.77
26.19
26.5
26.57
26.29
25.45
23.82
21.3
18.01
14.37
10.87
7.83
5.21
2.55
-0.92
-5.87
-12.53
-20.4
-28.26
-34.45
-37.39
-36.13
-30.69
-22.05
-11.79
-1.57
7.36
14.33
19.22
22.22
23.54
23.41
22.07
19.87
17.26
14.73
12.72
11.47
11
11.15
11.67
12.25
12.66
12.7
12.25
11.28
9.84
8.01
5.87
3.45
0.72
-2.36
-5.89
-9.99
-14.89
-20.79
-27.65
-34.9
-41.36
-45.43
-45.66
-41.39
-33.05
-22.12
-10.59
-0.24
7.85
13.44
16.82
18.44
18.54
17.26
14.74
11.29
7.51
4.08
1.55
0.19
-0.15
0.09
0.39
0.35
-0.17
-1.05
-2.04
-2.97
-3.86
-4.99
-6.76
-9.6
-13.79
-19.4
-26.14
-33.34
-39.87
-44.37
-45.52
-42.54
-35.49
-25.36
-13.72
-2.27
7.73
15.69
21.55
25.53
27.73
28.16
26.79
23.87
19.96
15.9
12.44
10.03
8.64
7.88
7.23
6.32
5.02
3.5
2.05
0.9
0.04
-0.72
-1.78
-3.58
-6.49
-10.74
-16.34
-23.01
-30.09
-36.54
-41.01
-42.18
-39.25
-32.22
-21.99
-10.13
1.65
12.06
20.44
26.73
31.19
34.13
35.71
36.02
35.14
33.31
30.85
28.16
25.56
23.3
21.46
20.01
18.9
18.1
17.59
17.34
17.19
16.83
15.85
13.9
10.85
6.92
2.57
-1.65
-5.39
-8.61
-11.68
-15.23
-19.87
-25.93
-33.17
-40.68
-47.01
-50.52
-49.93
-44.72
-35.4
-23.35
-10.35
1.93
12.34
20.44
26.33
30.39
33.03
34.54
35.04
34.68
33.65
32.27
30.91
29.8
28.98
28.24
27.32
25.98
24.16
21.96
19.54
17.04
14.43
11.62
8.51
5.04
1.29
-2.59
-6.42
-10.02
-13.32
-16.37
-19.23
-21.99
-24.6
-26.88
-28.58
-29.5
-29.68
-29.49
-29.54
-30.55
-33.11
-37.4
-43.04
-48.96
-53.69
-55.69
-53.86
-47.88
-38.43
-26.82
-14.67
-3.31
6.49
14.56
21.05
26.19
30.06
32.58
33.67
33.37
31.94
29.83
27.57
25.66
24.47
24.13
24.57
25.56
26.79
27.99
28.97
29.66
30.01
29.94
29.27
27.72
25.1
21.43
17
12.34
7.98
4.26
1.22
-1.4
-4.02
-7.01
-10.66
-15.08
-20.2
-25.69
-30.93
-34.99
-36.86
-35.74
-31.37
-24.14
-15.06
-5.36
3.82
11.75
18.19
23.19
27
29.79
31.67
32.61
32.63
31.82
30.42
28.74
27.14
25.92
25.22
25.04
25.26
25.68
26.03
26.11
25.69
24.64
22.9
20.44
17.37
13.85
10.03
6.06
2.11
-1.66
-5.07
-8.01
-10.45
-12.53
-14.46
-16.48
-18.81
-21.65
-25.14
-29.33
-33.98
-38.47
-41.77
-42.71
-40.41
-34.61
-25.92
-15.54
-4.92
4.71
12.58
18.37
22.05
23.74
23.6
21.91
19.08
15.7
12.33
9.51
7.58
6.66
6.65
7.28
8.18
9.03
9.65
10.05
10.34
10.67
10.97
11.04
10.59
9.38
7.41
4.87
2.11
-0.55
-2.89
-4.89
-6.61
-8.26
-10.04
-12.28
-15.27
-19.16
-23.78
-28.52
-32.32
-33.97
-32.55
-27.82
-20.35
-11.33
-2.19
5.87
12.22
16.7
19.53
21.01
21.34
20.67
19.09
16.85
14.27
11.75
9.63
8.14
7.32
7.12
7.39
7.94
8.6
9.15
9.45
9.3
8.62
7.38
5.7
3.79
1.8
-0.18
-2.25
-4.63
-7.62
-11.48
-16.25
-21.64
-26.86
-30.84
-32.39
-30.74
-25.79
-18.37
-9.86
-1.78
4.76
9.33
12.09
13.46
13.77
13.08
11.35
8.63
5.21
1.62
-1.6
-4.09
-5.8
-6.91
-7.75
-8.58
-9.49
-10.45
-11.26
-11.73
-11.82
-11.67
-11.61
-12.11
-13.6
-16.34
-20.31
-25.16
-30.13
-34.23
-36.29
-35.35
-30.97
-23.48
-13.98
-3.95
5.17
12.43
17.52
20.57
21.9
21.73
20.16
17.32
13.56
9.48
5.78
2.98
1.23
0.27
-0.47
-1.56
-3.28
-5.5
-7.76
-9.51
-10.42
-10.55
-10.37
-10.57
-11.81
-14.5
-18.66
-23.86
-29.25
-33.64
-35.8
-34.73
-30.13
-22.51
-13.18
-3.77
4.32
10.31
14.11
16.07
16.65
16.07
14.34
11.48
7.73
3.65
-0.09
-2.9
-4.53
-5.13
-5.14
-5.04
-5.12
-5.42
-5.72
-5.8
-5.56
-5.11
-4.83
-5.15
-6.44
-8.92
-12.63
-17.41
-22.88
-28.33
-32.74
-34.88
-33.68
-28.65
-20.15
-9.42
1.84
12.03
20.1
25.75
29.2
30.93
31.28
30.48
28.65
26.02
22.9
19.67
16.65
13.97
11.7
9.85
8.42
7.42
6.78
6.3
5.66
4.52
2.65
-0.03
-3.38
-7.17
-11.13
-15.03
-18.76
-22.26
-25.63
-29.11
-33.03
-37.66
-42.93
-48.22
-52.4
-54.13
-52.41
-47.04
-38.81
-29.25
-20.1
-12.69
-7.61
-4.68
-3.4
-3.23
-4
-5.84
-9.02
-13.69
-19.71
-26.56
-33.36
-39.11
-42.91
-44.27
-43.25
-40.45
-36.77
-33.19
-30.47
-29.03
-28.99
-30.2
-32.31
-34.78
-36.94
-38.05
-37.54
-35.2
-31.38
-26.93
-23.02
-20.64
-20.34
-21.97
-24.87
-28.19
-31.13
-32.95
-32.72
-28.91
-19.47
-2.36
23.44
56.92
94.8
132.22
164.24
187.5
201.07
206.41
206.22
203.13
198.73
193.31
186.3
176.88
164.5
148.95
130.15
107.98
82.39
53.64
22.8
-8.23
-37
-61.15
-79.09
-90.4
-95.8
-96.72
-94.75
-91.1
-86.52
-81.3
-75.52
-69.3
-62.87
-56.57
-50.72
-45.38
-40.22
-34.59
-27.75
-19.32
-9.55
0.67
10.13
17.76
23.08
26.29
28.01
28.93
29.49
29.81
29.77
29.19
27.88
25.7
22.44
17.89
11.94
4.67
-3.5
-11.88
-19.7
-26.27
-31.2
-34.43
-36.12
-36.53
-35.94
-34.55
-32.56
-30.23
-27.87
-25.83
-24.35
-23.41
-22.75
-21.96
-20.66
-18.71
-16.28
-13.81
-11.88
-11.02
-11.55
-13.49
-16.44
-19.54
-21.61
-21.35
-17.79
-10.58
-0.31
11.64
23.41
33.33
40.3
44.08
45.09
44.14
41.96
39.01
35.49
31.49
27.17
22.85
18.96
15.85
13.66
12.13
10.79
9.11
6.75
3.74
0.44
-2.61
-4.92
-6.22
-6.52
-6.12
-5.43
-4.93
-5.09
-6.36
-9.03
-13.15
-18.35
-23.75
-28
-29.66
-27.65
-21.71
-12.59
-1.93
8.33
16.56
21.93
24.49
24.94
24.11
22.64
20.79
18.57
16.01
13.27
10.63
8.42
6.88
6.15
6.18
6.8
7.73
8.65
9.23
9.26
8.61
7.3
5.34
2.73
-0.54
-4.43
-8.83
-13.49
-18.19
-22.73
-26.87
-30.25
-32.23
-31.99
-28.88
-22.72
-14.11
-4.29
5.2
13.1
18.74
22.15
23.78
24.21
23.81
22.79
21.18
19.04
16.58
14.16
12.13
10.83
10.37
10.66
11.42
12.28
12.86
12.84
12.03
10.37
7.98
5.14
2.17
-0.6
-3.01
-5.03
-6.85
-8.74
-11
-13.84
-17.34
-21.27
-25.08
-27.81
-28.34
-25.69
-19.51
-10.34
0.42
10.92
19.54
25.33
28.22
28.79
27.9
26.24
24.21
21.99
19.71
17.56
15.76
14.47
13.69
13.23
12.85
12.4
11.88
11.35
10.87
10.38
9.72
8.67
7.08
4.91
2.28
-0.6
-3.53
-6.37
-9.02
-11.5
-13.92
-16.44
-19.28
-22.52
-26.05
-29.39
-31.8
-32.43
-30.74
-26.68
-20.73
-13.79
-6.81
-0.53
4.67
8.69
11.55
13.29
13.93
13.5
12.17
10.28
8.24
6.5
5.39
5.02
5.27
5.89
6.54
6.99
7.09
6.84
6.27
5.39
4.2
2.68
0.85
-1.25
-3.58
-6.18
-9.09
-12.37
-15.89
-19.4
-22.52
-24.8
-25.86
-25.45
-23.45
-19.91
-15.08
-9.38
-3.37
2.35
7.22
10.82
12.87
13.23
11.97
9.38
6
2.55
-0.28
-1.99
-2.45
-1.94
-0.96
-0.03
0.43
0.25
-0.53
-1.75
-3.2
-4.73
-6.3
-8.03
-10.08
-12.58
-15.47
-18.48
-21.11
-22.8
-23.07
-21.58
-18.29
-13.42
-7.46
-1.02
5.21
10.61
14.72
17.31
18.34
17.9
16.19
13.47
10.14
6.68
3.63
1.44
0.35
0.27
0.9
1.75
2.36
2.38
1.67
0.25
-1.73
-4.16
-6.91
-9.94
-13.14
-16.36
-19.29
-21.49
-22.5
-21.85
-19.31
-14.93
-9.08
-2.46
4.08
9.78
14.09
16.77
17.93
17.81
16.7
14.91
12.7
10.38
8.23
6.5
5.27
4.45
3.81
3.14
2.32
1.33
0.2
-1.04
-2.42
-4.01
-5.96
-8.42
-11.51
-15.18
-19.14
-22.78
-25.22
-25.61
-23.49
-18.97
-12.79
-6.02
0.33
5.63
9.75
12.85
15.13
16.65
17.3
16.96
15.6
13.44
10.87
8.36
6.3
4.92
4.19
3.87
3.57
2.94
1.75
0.03
-2.05
-4.23
-6.37
-8.51
-10.76
-13.28
-16.16
-19.39
-22.9
-26.5
-29.84
-32.34
-33.29
-32
-28.14
-21.9
-13.97
-5.41
2.7
9.58
14.85
18.54
20.92
22.26
22.74
22.35
21.1
19.09
16.68
14.44
12.9
12.34
12.66
13.41
14.01
14.07
13.46
12.38
11.17
10.11
9.32
8.7
8.03
6.98
5.28
2.77
-0.41
-3.92
-7.28
-10.07
-12.11
-13.5
-14.56
-15.69
-17.26
-19.48
-22.38
-25.74
-29.05
-31.45
-32
-29.88
-24.8
-17.19
-8.14
0.99
8.98
15.11
19.31
21.88
23.28
23.85
23.65
22.67
20.95
18.71
16.37
14.38
13.06
12.48
12.46
12.71
12.95
12.97
12.64
11.9
10.72
9.14
7.26
5.29
3.36
1.53
-0.23
-2.01
-3.88
-5.87
-7.96
-10.1
-12.23
-14.34
-16.42
-18.57
-20.86
-23.35
-25.96
-28.43
-30.3
-30.97
-29.95
-26.97
-22.12
-15.81
-8.69
-1.48
5.16
10.74
15.03
17.98
19.75
20.53
20.5
19.82
18.66
17.26
15.97
15.06
14.71
14.84
15.19
15.48
15.5
15.18
14.57
13.71
12.64
11.35
9.83
8.12
6.29
4.37
2.32
0.11
-2.25
-4.66
-6.91
-8.84
-10.43
-11.84
-13.35
-15.2
-17.5
-20.16
-22.95
-25.48
-27.37
-28.2
-27.65
-25.54
-21.88
-16.9
-11.03
-4.76
1.36
6.86
11.37
14.65
16.56
17.13
16.51
14.97
12.83
10.48
8.26
6.5
5.43
5.11
5.43
6.14
6.95
7.62
8.02
8.12
7.92
7.45
6.62
5.38
3.74
1.82
-0.18
-2.07
-3.76
-5.31
-6.89
-8.75
-11.03
-13.71
-16.66
-19.62
-22.26
-24.22
-25.16
-24.76
-22.84
-19.41
-14.71
-9.21
-3.5
1.88
6.49
10.1
12.59
13.99
14.37
13.86
12.6
10.84
8.82
6.77
4.97
3.57
2.73
2.46
2.71
3.26
3.81
4.06
3.73
2.73
1.11
-0.92
-3.08
-5.13
-6.91
-8.43
-9.8
-11.26
-13.04
-15.3
-18
-20.86
-23.38
-24.88
-24.71
-22.49
-18.22
-12.39
-5.81
0.61
6.15
10.42
13.41
15.28
16.22
16.31
15.6
14.16
12.23
10.14
8.26
6.83
5.88
5.31
4.95
4.67
4.35
3.94
3.35
2.49
1.3
-0.24
-2.13
-4.32
-6.76
-9.39
-12.19
-15.14
-18.26
-21.53
-24.82
-27.8
-29.93
-30.56
-29.18
-25.6
-20.05
-13.15
-5.7
1.53
8.02
13.45
17.61
20.37
21.64
21.41
19.87
17.39
14.5
11.77
9.68
8.45
7.99
7.93
7.81
7.18
5.84
3.85
1.48
-0.96
-3.22
-5.25
-7.16
-9.18
-11.56
-14.47
-17.98
-21.96
-26.08
-29.72
-32.14
-32.62
-30.73
-26.53
-20.58
-13.75
-7
-1.05
3.7
7.14
9.3
10.22
9.95
8.58
6.38
3.79
1.37
-0.47
-1.54
-1.95
-1.96
-1.85
-1.7
-1.37
-0.58
0.97
3.42
6.65
10.28
13.77
16.56
18.18
18.39
17.06
14.24
10.05
4.82
-0.9
-6.28
-10.36
-12.25
-11.48
-8.15
-2.9
3.3
9.52
15.05
19.56
22.96
25.32
26.66
27
26.32
24.66
22.18
19.17
16.06
13.34
11.37
10.33
10.1
10.3
10.46
10.2
9.35
8.01
6.36
4.58
2.72
0.72
-1.51
-3.99
-6.76
-9.82
-13.2
-16.86
-20.6
-24
-26.43
-27.25
-25.98
-22.51
-17.13
-10.49
-3.43
3.23
8.86
13.13
15.97
17.43
17.66
16.77
14.92
12.37
9.54
6.93
4.94
3.75
3.24
3.08
2.94
2.62
2.09
1.39
0.56
-0.42
-1.58
-2.97
-4.58
-6.46
-8.66
-11.24
-14.22
-17.43
-20.54
-23.13
-24.81
-25.25
-24.24
-21.65
-17.47
-11.9
-5.35
1.53
7.99
13.39
17.39
19.96
21.35
21.9
21.88
21.47
20.74
19.74
18.53
17.25
16.01
14.91
13.9
12.87
11.65
10.16
8.48
6.85
5.49
4.5
3.71
2.75
1.26
-0.96
-3.87
-7.29
-11.03
-14.92
-18.79
-22.3
-24.86
-25.78
-24.5
-20.91
-15.42
-8.85
-2.12
4.05
9.27
13.35
16.21
17.69
17.68
16.24
13.75
10.81
8.09
6.06
4.86
4.32
4.15
4.08
3.99
3.86
3.68
3.39
2.89
2.14
1.07
-0.34
-2.17
-4.58
-7.69
-11.48
-15.61
-19.43
-22.14
-23.03
-21.68
-18.12
-12.8
-6.37
0.47
7.17
13.4
19.01
23.94
28.06
31.17
32.88
32.81
30.71
26.68
21.25
15.29
9.74
5.3
2.2
0.19
-1.18
-2.37
-3.55
-4.7
-5.76
-6.85
-8.34
-10.72
-14.37
-19.2
-24.63
-29.69
-33.34
-34.81
-33.81
-30.56
-25.63
-19.69
-13.33
-7
-1.03
4.29
8.68
11.87
13.65
13.96
12.92
10.81
8.07
5.2
2.64
0.63
-0.79
-1.79
-2.56
-3.19
-3.62
-3.71
-3.39
-2.83
-2.44
-2.75
-4.22
-7.03
-11.11
-16.05
-21.22
-25.82
-28.95
-29.78
-27.8
-23.03
-16.08
-8
0.08
7.31
13.29
18.05
21.77
24.54
26.22
26.63
25.68
23.55
20.7
17.7
15.02
12.96
11.51
10.5
9.71
8.94
8.08
7.08
5.91
4.55
2.92
0.9
-1.62
-4.72
-8.46
-12.85
-17.76
-22.92
-27.79
-31.59
-33.48
-32.81
-29.3
-23.26
-15.4
-6.74
1.77
9.35
15.56
20.19
23.25
24.83
25.07
24.15
22.27
19.72
16.84
14.03
11.67
10
9.03
8.58
8.37
8.1
7.64
7.03
6.42
5.95
5.65
5.38
4.91
4.05
2.71
0.88
-1.42
-4.18
-7.43
-10.98
-14.34
-16.79
-17.43
-15.64
-11.31
-4.91
2.68
10.52
17.9
24.47
30.13
34.84
38.45
40.69
41.37
40.51
38.45
35.73
32.96
30.62
28.92
27.84
27.16
26.6
25.89
24.79
23.11
20.71
17.6
13.92
9.96
6.06
2.49
-0.65
-3.5
-6.3
-9.31
-12.71
-16.52
-20.74
-25.23
-29.76
-33.93
-37.14
-38.69
-38.04
-35.06
-30.15
-24.13
-17.98
-12.51
-8.17
-5.12
-3.35
-2.82
-3.55
-5.47
-8.36
-11.9
-15.71
-19.47
-22.98
-26.13
-28.92
-31.42
-33.71
-35.85
-37.82
-39.45
-40.5
-40.71
-39.95
-38.27
-35.87
-33.05
-30.05
-27.06
-24.23
-21.61
-19.19
-16.75
-13.99
-10.55
-6.25
-1.17
4.37
9.99
15.39
20.37
24.84
28.62
31.46
33.05
33.13
31.67
28.86
25.06
20.66
16.04
11.45
7.07
2.99
-0.87
-4.65
-8.61
-12.97
-17.87
-23.23
-28.68
-33.56
-37.07
-38.52
-37.64
-34.68
-30.3
-25.25
-19.97
-14.45
-8.33
-1.26
6.8
15.5
24.34
32.93
41.12
48.85
55.86
61.56
65.03
65.51
62.64
56.67
48.31
38.35
27.42
15.91
4.17
-7.28
-17.62
-25.94
-31.44
-33.81
-33.31
-30.68
-26.96
-23.19
-20.26
-18.79
-19.08
-21.06
-24.35
-28.16
-31.59
-33.74
-34.14
-32.82
-30.33
-27.62
-25.7
-25.47
-27.5
-31.91
-38.3
-45.7
-52.58
-57.19
-57.93
-53.9
-45.13
-32.67
-18.27
-3.84
8.99
19.21
26.47
30.98
33.3
34.08
33.87
32.96
31.3
28.56
24.29
18.23
10.45
1.5
-7.66
-15.8
-21.64
-24.1
-22.5
-16.71
-7.25
4.92
18.51
32.22
44.94
55.9
64.7
71.29
75.84
78.61
79.73
79.13
76.54
71.67
64.53
55.51
45.47
35.43
26.21
18.24
11.46
5.47
-0.26
-6.21
-12.75
-20.05
-28
-36.06
-43.16
-47.91
-48.96
-45.56
-37.93
-27.24
-15.31
-4.05
5.11
11.49
15.08
16.3
15.68
13.67
10.57
6.65
2.23
-2.3
-6.49
-9.95
-12.39
-13.69
-13.88
-13.11
-11.64
-9.82
-8.11
-7.04
-7.26
-9.3
-13.47
-19.58
-26.74
-33.53
-38.16
-39.1
-35.53
-27.61
-16.43
-3.66
8.98
20.14
29.03
35.43
39.5
41.57
42.04
41.32
39.85
38.04
36.27
34.74
33.44
32.08
30.23
27.47
23.6
18.79
13.5
8.33
3.75
-0.14
-3.57
-7.09
-11.27
-16.48
-22.69
-29.25
-35.05
-38.67
-38.88
-35.08
-27.54
-17.39
-6.18
4.63
14.03
21.61
27.34
31.3
33.45
33.68
31.99
28.67
24.33
19.77
15.78
12.93
11.37
10.87
10.96
11.1
10.95
10.46
9.77
9.16
8.73
8.34
7.67
6.33
4.04
0.68
-3.6
-8.47
-13.25
-16.95
-18.27
-15.95
-9.21
1.88
16.27
32.21
47.73
61.23
71.81
79.39
84.43
87.65
89.71
90.99
91.57
91.17
89.36
85.76
80.21
72.9
64.26
54.88
45.38
36.26
27.66
19.2
9.85
-1.92
-17.48
-37.38
-60.63
-84.65
-105.89
-121.04
-128.2
-127.6
-121.35
-112.51
-103.75
-96.39
-90.13
-83.4
-74.24
-61.2
-43.95
-23.55
-2.24
17.04
31.44
38.88
38.68
31.87
20.94
9.13
-0.5
-5.9
-6.47
-2.9
3.37
10.66
17.52
22.81
25.81
26.21
24.15
20.23
15.33
10.38
5.94
2.06
-1.66
-5.86
-10.99
-17.04
-23.38
-28.95
-32.55
-33.25
-30.73
-25.36
-18.15
-10.37
-3.25
2.39
6.19
8.18
8.59
7.72
5.88
3.44
0.83
-1.5
-3.2
-4.13
-4.4
-4.36
-4.33
-4.58
-5.19
-6.1
-7.16
-8.22
-9.12
-9.78
-10.18
-10.47
-10.91
-11.73
-13.02
-14.57
-15.91
-16.42
-15.6
-13.24
-9.43
-4.52
0.99
6.6
11.81
16.2
19.46
21.44
22.2
21.92
20.88
19.37
17.66
16
14.53
13.33
12.28
11.23
10.03
8.67
7.34
6.28
5.6
5.18
4.58
3.25
0.81
-2.82
-7.32
-12.07
-16.35
-19.5
-21.01
-20.53
-17.97
-13.56
-7.79
-1.41
4.77
10.14
14.32
17.27
19.09
19.9
19.77
18.78
17.1
15.01
12.85
10.88
9.13
7.44
5.56
3.26
0.5
-2.63
-5.93
-9.3
-12.72
-16.31
-20.13
-24.1
-27.9
-30.94
-32.58
-32.31
-30.01
-25.98
-20.95
-15.73
-10.93
-6.83
-3.44
-0.64
1.6
3.13
3.75
3.35
2.02
0.07
-2.09
-4.07
-5.58
-6.48
-6.72
-6.4
-5.75
-5.1
-4.76
-4.99
-5.89
-7.45
-9.51
-11.85
-14.09
-15.81
-16.47
-15.68
-13.29
-9.55
-5.01
-0.37
3.76
7.05
9.38
10.78
11.26
10.83
9.49
7.39
4.77
2.01
-0.53
-2.6
-4.17
-5.35
-6.35
-7.42
-8.73
-10.36
-12.3
-14.51
-16.9
-19.36
-21.69
-23.6
-24.67
-24.48
-22.71
-19.33
-14.63
-9.21
-3.75
1.15
5.12
8.09
10.23
11.74
12.71
13.11
12.77
11.56
9.49
6.77
3.76
0.89
-1.51
-3.29
-4.47
-5.21
-5.79
-6.46
-7.44
-8.91
-10.93
-13.39
-16.03
-18.38
-19.88
-19.96
-18.24
-14.63
-9.45
-3.3
3.02
8.79
13.46
16.79
18.79
19.61
19.41
18.31
16.39
13.75
10.53
6.97
3.31
-0.17
-3.25
-5.78
-7.68
-8.95
-9.7
-10.12
-10.46
-11.03
-12.16
-14.07
-16.8
-20.05
-23.17
-25.29
-25.56
-23.4
-18.79
-12.19
-4.45
3.5
10.8
16.87
21.35
24.12
25.19
24.72
23.04
20.53
17.63
14.73
12.12
9.93
8.15
6.62
5.11
3.47
1.64
-0.26
-2.03
-3.53
-4.72
-5.71
-6.78
-8.25
-10.41
-13.44
-17.35
-21.84
-26.34
-29.94
-31.66
-30.68
-26.68
-19.97
-11.46
-2.31
6.34
13.69
19.38
23.39
25.88
27.11
27.33
26.78
25.75
24.51
23.26
22.09
20.99
19.89
18.77
17.68
16.72
15.94
15.26
14.48
13.33
11.64
9.39
6.81
4.17
1.73
-0.46
-2.53
-4.74
-7.3
-10.31
-13.78
-17.67
-21.83
-26.01
-29.67
-32.06
-32.33
-29.85
-24.54
-16.97
-8.2
0.53
8.22
14.3
18.67
21.48
22.95
23.3
22.77
21.64
20.26
18.98
17.95
17.12
16.28
15.2
13.83
12.31
10.92
9.85
9.09
8.42
7.51
6.12
4.14
1.64
-1.27
-4.44
-7.74
-11.07
-14.33
-17.49
-20.63
-23.93
-27.57
-31.5
-35.22
-37.82
-38.21
-35.49
-29.38
-20.43
-9.86
0.78
10.1
17.23
21.97
24.7
26.05
26.57
26.49
25.75
24.17
21.69
18.55
15.25
12.38
10.43
9.64
10.02
11.45
13.74
16.68
19.91
22.91
25.02
25.65
24.47
21.58
17.47
12.83
8.29
4.28
0.94
-1.81
-4.22
-6.58
-9.25
-12.47
-16.24
-20.14
-23.31
-24.58
-22.89
-17.72
-9.4
0.94
11.71
21.38
28.98
34.25
37.57
39.56
40.83
41.73
42.35
42.65
42.6
42.31
41.92
41.52
41.07
40.31
38.89
36.47
32.89
28.2
22.57
16.22
9.28
1.82
-5.94
-13.58
-20.44
-25.7
-28.74
-29.31
-27.62
-24.28
-20.08
-15.88
-12.49
-10.63
-10.85
-13.36
-17.89
-23.61
-29.22
-33.35
-34.89
-33.34
-28.96
-22.56
-15.31
-8.38
-2.68
1.31
3.52
4.19
3.67
2.24
0.12
-2.52
-5.42
-8.21
-10.55
-12.25
-13.37
-14.17
-14.91
-15.71
-16.46
-17.02
-17.39
-17.81
-18.73
-20.54
-23.36
-26.95
-30.84
-34.51
-37.62
-40.02
-41.7
-42.71
-43.05
-42.74
-41.8
-40.26
-38.12
-35.25
-31.34
-26.06
-19.2
-10.93
-1.85
7.05
14.78
20.64
24.49
26.65
27.65
27.84
27.23
25.61
22.82
19.07
15.04
11.56
9.33
8.56
8.99
10.12
11.58
13.23
15.12
17.29
19.51
21.32
22.13
21.47
19.18
15.44
10.63
5.2
-0.43
-5.93
-10.95
-15.2
-18.53
-20.96
-22.76
-24.36
-26.19
-28.42
-30.9
-33.15
-34.55
-34.61
-33.13
-30.34
-26.84
-23.51
-21.31
-21.08
-23.31
-27.93
-34.26
-40.97
-46.37
-48.72
-46.74
-40.02
-29.22
-15.92
-2.14
10.25
20.14
27.46
33.06
38.2
43.95
50.63
57.66
63.65
66.9
65.92
59.89
48.95
34.25
17.5
0.61
-14.79
-27.56
-36.98
-42.48
-43.65
-40.24
-32.54
-21.61
-9.21
2.62
12.18
18.6
21.93
22.74
21.66
19.09
15.21
10.12
4.1
-2.53
-9.53
-16.91
-24.95
-34.04
-44.53
-56.73
-70.6
-85.84
-101.73
-117.2
-131.19
-143.13
-153.42
-163.4
-174.84
-188.83
-204.85
-220.52
-232.25
-236.59
-231.5
-216.88
-194.08
-164.86
-130.49
-91.69
-49.29
-5.02
38.17
76.77
107.81
129.85
143.27
149.51
150.2
146.4
138.61
127.15
112.66
96.19
78.92
61.76
45.16
29.34
14.81
2.7
-5.13
-6.59
-0.2
14.17
34.93
59.07
82.97
103.41
118.29
126.86
129.49
127.19
121.13
112.45
102.05
90.67
78.79
66.63
54.31
41.96
29.93
18.84
9.39
2.17
-2.56
-4.81
-4.82
-2.95
0.41
4.83
9.92
15.34
21.01
27.16
34.22
42.54
51.99
61.62
69.72
74.27
73.67
67.36
55.96
40.79
23.16
3.93
-16.44
-37.22
-56.82
-72.8
-82.65
-85.03
-80.61
-71.92
-62.23
-54.19
-48.93
-46.16
-45.04
-45.07
-46.51
-49.91
-55.42
-62.33
-69.19
-74.53
-77.54
-78.45
-78.26
-78.07
-78.48
-79.41
-80.13
-79.67
-77.2
-72.27
-65.03
-56.19
-46.93
-38.67
-32.6
-29.33
-28.68
-29.78
-31.39
-32.42
-32.07
-29.89
-25.54
-18.62
-8.75
4.22
19.96
37.57
55.72
73.06
88.45
101.18
110.87
117.42
120.97
121.85
120.69
118.21
115.19
112.23
109.59
107.24
104.87
102.08
98.52
93.93
88.19
81.33
73.52
65.05
56.28
47.49
38.86
30.36
21.78
12.9
3.56
-6.2
-16.09
-25.72
-34.61
-42.37
-48.64
-53.16
-55.68
-56.09
-54.47
-51.13
-46.56
-41.28
-35.73
-30.16
-24.58
-18.82
-12.55
-5.3
3.43
13.98
26.21
39.31
51.88
62.33
69.41
72.68
72.54
69.98
66.03
61.4
56.37
51.05
45.6
40.38
35.85
32.25
29.43
26.78
23.54
19.09
13.32
6.76
0.48
-4.17
-5.97
-4.17
1.4
10.31
21.69
34.37
47.07
58.37
66.89
71.43
71.36
66.9
59.28
50.56
43.07
38.77
38.77
43.17
51.21
61.73
73.47
85.34
96.47
106.22
114.23
120.42
124.99
128.22
130.2
130.65
128.83
123.91
115.31
103.15
88.28
72.1
56.04
41.17
28.01
16.46
6.12
-3.61
-13.27
-23.29
-33.89
-44.9
-55.64
-65.02
-71.84
-75.14
-74.69
-71.06
-65.47
-59.36
-53.91
-49.84
-47.33
-46.27
-46.47
-47.74
-49.94
-52.84
-56.08
-59.2
-61.71
-63.26
-63.67
-62.98
-61.36
-59.07
-56.4
-53.59
-50.86
-48.36
-46.15
-44.24
-42.51
-40.75
-38.7
-36.18
-33.12
-29.67
-26.13
-22.92
-20.38
-18.68
-17.79
-17.51
-17.61
-17.86
-17.99
-17.68
-16.52
-14.08
-10.13
-4.77
1.48
7.75
13.17
17.04
19.09
19.52
18.82
17.54
16.08
14.49
12.48
9.47
4.76
-2.28
-11.94
-24.13
-38.32
-53.64
-69.09
-83.83
-97.34
-109.56
-120.87
-131.86
-143.11
-154.84
-166.78
-178.18
-188.06
-195.51
-200.11
-202.12
-202.38
-202.04
-201.97
-202.25
-201.91
-198.96
-191.01
-176
-152.91
-122.16
-85.46
-45.31
-4.25
35.7
73.39
108.36
140.5
169.73
195.65
217.55
234.63
246.24
252.12
252.48
247.96
239.47
228.13
215.09
201.49
188.21
175.75
164.04
152.64
140.92
128.48
115.27
101.51
87.48
73.35
59.14
44.92
31.05
18.12
6.75
-2.75
-10.55
-17.24
-23.51
-29.76
-35.98
-41.81
-46.79
-50.52
-52.78
-53.42
-52.23
-49.06
-43.92
-37.23
-29.89
-23.13
-18.1
-15.53
-15.47
-17.33
-20.16
-22.99
-25.14
-26.24
-26.28
-25.42
-23.92
-22.04
-19.99
-17.75
-15.14
-11.83
-7.5
-2.06
4.3
11.15
17.94
24.22
29.57
33.72
36.48
37.78
37.78
36.87
35.65
34.66
34.2
34.23
34.43
34.42
34.02
33.37
32.88
33.08
34.28
36.49
39.33
42.19
44.42
45.48
45.09
43.19
39.9
35.44
30.11
24.31
18.49
13.16
8.76
5.56
3.63
2.79
2.69
2.88
2.93
2.5
1.51
0.11
-1.41
-2.76
-3.9
-5.21
-7.33
-10.96
-16.39
-23.26
-30.59
-37.09
-41.75
-44.13
-44.5
-43.58
-42.18
-40.86
-39.85
-39.08
-38.35
-37.33
-35.61
-32.68
-28.05
-21.54
-13.39
-4.35
4.52
12.18
17.84
21.17
22.17
21.15
18.48
14.63
10.1
5.33
0.59
-4.11
-8.97
-14.2
-19.76
-25.21
-29.84
-32.97
-34.36
-34.32
-33.51
-32.51
-31.49
-30.15
-28.06
-25.11
-21.8
-19.12
-18.13
-19.5
-23.2
-28.64
-34.85
-40.94
-46.34
-50.83
-54.56
-57.85
-60.98
-64.05
-66.88
-69.04
-70.12
-69.88
-68.4
-65.98
-63
-59.75
-56.43
-53.3
-50.78
-49.42
-49.66
-51.52
-54.36
-56.99
-58.16
-57.05
-53.57
-48.18
-41.32
-32.98
-22.73
-10.32
3.65
17.56
29.27
37.13
40.85
41.53
41.07
40.99
41.73
42.65
42.74
41.52
39.45
37.77
37.87
40.61
46.05
53.5
61.85
69.94
76.85
82.13
85.87
88.57
90.84
93.08
95.29
97.11
98
97.55
95.59
92.26
87.82
82.61
77.04
71.73
67.51
65.38
66.11
69.89
76.05
83.16
89.44
93.41
94.3
92.18
87.6
81.16
73.09
63.26
51.4
37.57
22.42
7.14
-6.96
-18.93
-28.48
-36.01
-42.24
-47.82
-53.04
-57.78
-61.74
-64.61
-66.15
-66.35
-65.46
-64.15
-63.53
-64.94
-69.49
-77.52
-88.27
-100.08
-110.86
-118.77
-122.6
-121.86
-116.64
-107.37
-94.87
-80.28
-65.18
-51.33
-40.41
-33.63
-31.47
-33.71
-39.61
-48.12
-58.09
-68.44
-78.09
-86.08
-91.52
-93.71
-92.27
-87.2
-79
-68.53
-56.91
-45.22
-34.38
-24.97
-17.22
-11.07
-6.34
-2.95
-0.98
-0.71
-2.3
-5.63
-10.02
-14.44
-17.8
-19.31
-18.62
-15.86
-11.35
-5.57
0.95
7.58
13.61
18.4
21.57
23.14
23.46
23.14
22.85
23.24
24.88
28.19
33.26
39.84
47.26
54.6
60.92
65.52
68.03
68.49
67.19
64.69
61.67
58.82
56.55
54.8
52.97
50.08
45.3
38.34
29.7
20.47
11.86
4.78
-0.41
-3.73
-5.34
-5.36
-3.86
-1.01
2.8
7
11.07
14.79
18.29
21.89
25.88
30.32
34.99
39.48
43.32
46.22
48.09
49.08
49.48
49.61
49.56
49.18
48.07
45.77
42.11
37.43
32.56
28.49
26.05
25.46
26.38
28.07
29.77
31.02
31.78
32.39
33.29
34.75
36.7
38.76
40.39
41.13
40.76
39.31
37.02
34.16
31
27.75
24.37
20.32
14.39
4.7
-10.66
-32.79
-61.02
-92.55
-123.06
-147.75
-162.81
-166.44
-159.13
-143.4
-123.01
-102.07
-84.26
-72.24
-67.15
-68.43
-74.03
-81.01
-86.47
-88.41
-86.19
-80.57
-73.16
-65.67
-59.3
-54.41
-50.59
-46.96
-42.69
-37.28
-30.66
-23.02
-14.68
-6.01
2.46
9.93
15.4
17.85
16.87
13
7.91
3.98
3.48
7.59
15.9
26.54
36.84
44.24
47.13
45.07
38.66
29.02
17.32
4.54
-8.6
-21.53
-33.71
-44.69
-54.25
-62.42
-69.35
-75.14
-79.6
-82.21
-82.33
-79.59
-74.06
-66.37
-57.47
-48.35
-39.74
-32.22
-26.23
-22.27
-20.75
-21.81
-25.07
-29.65
-34.36
-38.16
-40.53
-41.52
-41.64
-41.43
-41.17
-40.72
-39.67
-37.57
-34.19
-29.64
-24.13
-17.81
-10.63
-2.48
6.5
15.55
23.31
28.24
29.35
26.78
21.83
16.53
12.78
11.64
13.09
16.55
21.36
27.31
34.5
42.84
51.74
59.94
66.03
68.97
68.53
65.2
59.86
53.46
46.83
40.77
36.12
33.77
34.35
38.05
44.39
52.4
60.97
69.09
76.15
81.84
86.21
89.48
92.02
94.23
96.48
99.02
101.71
103.92
104.46
101.85
94.84
83.08
67.57
50.52
34.6
21.89
13.17
7.74
4.06
0.72
-2.75
-5.71
-6.79
-4.54
2.09
13.45
29.18
48.06
67.82
85.27
96.75
99.27
91.62
75.1
53.3
31.03
12.59
0.48
-5.3
-6.81
-7.07
-8.82
-13.6
-21.5
-31.51
-42.07
-51.81
-60.03
-66.92
-73.36
-80.43
-88.7
-97.8
-106.5
-113.37
-117.72
-120.32
-123.3
-129.33
-140.47
-157.28
-178.5
-201.47
-222.7
-238.39
-244.94
-239.55
-221.11
-190.87
-152.55
-111.49
-73.06
-41.12
-17.2
-0.82
9.74
16.34
20.59
23.79
27.04
31.17
36.48
42.61
48.66
53.67
57.04
58.77
59.33
59.36
59.3
59.39
59.63
59.88
59.98
59.79
59.35
59.01
59.4
61.35
65.51
71.95
80.04
88.64
96.46
102.56
106.47
108.1
107.45
104.34
98.61
90.48
80.87
71.49
64.38
61.25
62.8
68.51
76.81
85.68
93.26
98.18
99.7
97.67
92.43
84.72
75.66
66.54
58.56
52.58
48.95
47.45
47.47
48.14
48.55
48
46.13
43.11
39.56
36.3
33.98
32.74
32.13
31.35
29.7
26.95
23.36
19.48
15.68
11.92
7.78
2.78
-3.31
-10.36
-18.15
-26.59
-35.83
-46.14
-57.75
-70.78
-85.29
-101.29
-118.62
-136.69
-154.27
-169.68
-181.29
-188.06
-189.78
-186.69
-178.96
-166.25
-147.97
-123.98
-95.29
-64.21
-33.56
-5.5
19.33
41.92
64.11
87.38
111.99
136.67
158.85
175.46
183.64
181.33
167.81
143.92
111.94
75.17
37.1
0.55
-32.81
-62.54
-88.94
-112.48
-133.44
-151.84
-167.62
-180.72
-190.89
-197.38
-198.83
-193.5
-179.99
-158.08
-129.16
-96.06
-62.24
-30.78
-3.62
18.65
36.46
50.61
61.7
69.9
75.13
77.37
76.97
74.68
71.48
68.24
65.53
63.53
62.22
61.56
61.57
62.27
63.53
64.92
65.81
65.52
63.56
59.68
53.91
46.41
37.5
27.59
17.25
7.08
-2.32
-10.57
-17.46
-22.92
-26.83
-29.04
-29.37
-27.8
-24.59
-20.24
-15.43
-10.79
-6.81
-3.84
-2.01
-1.26
-1.33
-1.89
-2.55
-3.09
-3.38
-3.3
-2.67
-1.22
1.21
4.46
7.85
10.41
11.24
9.95
6.83
2.72
-1.41
-4.85
-7.31
-8.9
-9.99
-11.11
-12.8
-15.54
-19.55
-24.6
-29.92
-34.33
-36.62
-35.96
-32.13
-25.54
-17.07
-7.7
1.67
10.32
17.68
23.23
26.5
27.16
25.14
20.85
15.23
9.59
5.32
3.42
4.21
7.22
11.47
15.83
19.45
21.88
23.06
23.13
22.37
21.15
19.92
19.2
19.41
20.59
22.37
23.98
24.63
23.9
22.01
19.74
18.08
17.72
18.83
20.98
23.53
25.97
28.21
30.47
33.02
35.85
38.49
40.09
39.82
37.15
32.12
25.25
17.31
9.02
0.87
-6.91
-14.22
-20.86
-26.49
-30.66
-33
-33.36
-31.85
-28.76
-24.4
-19.03
-12.88
-6.31
0.11
5.63
9.48
11.16
10.63
8.25
4.62
0.23
-4.81
-10.78
-18.22
-27.44
-38.16
-49.35
-59.4
-66.7
-70.27
-70.19
-67.61
-64.27
-61.84
-61.3
-62.66
-65.13
-67.49
-68.54
-67.42
-63.65
-57.16
-48.2
-37.36
-25.46
-13.48
-2.34
7.27
14.96
20.71
24.68
27.11
28.2
28.02
26.69
24.4
21.56
18.87
17.17
17.36
19.99
25.04
31.71
38.64
44.4
48.06
49.65
50.1
50.78
52.83
56.6
61.5
66.28
69.54
70.23
67.89
62.6
54.78
45.02
33.86
21.81
9.43
-2.62
-13.46
-22.15
-27.7
-29.07
-25.04
-14.26
4.38
30.8
62.84
95.99
124.21
141.88
145.89
137.02
119.49
99.09
80.71
66.49
55.61
45.51
33.8
19.68
4.28
-10.05
-21.09
-27.8
-30.74
-31.63
-32.51
-34.55
-37.49
-39.82
-39.54
-35.27
-27.02
-16.33
-5.63
2.69
7.14
7.4
4.1
-1.76
-9.3
-17.87
-26.92
-35.67
-42.9
-47.05
-46.65
-40.87
-29.82
-14.68
2.7
20.33
36.54
50.3
61.11
68.89
73.73
75.85
75.57
73.37
69.82
65.5
60.86
56.22
51.74
47.54
43.65
39.98
36.28
32.15
27.1
20.68
12.65
3
-7.83
-19.07
-29.68
-38.65
-45.27
-49.34
-51.17
-51.44
-50.95
-50.35
-50
-49.9
-49.89
-49.64
-48.91
-47.55
-45.56
-43.05
-40.26
-37.42
-34.7
-32.19
-29.93
-27.91
-26.13
-24.54
-23.04
-21.45
-19.46
-16.79
-13.2
-8.66
-3.44
1.85
6.43
9.56
10.81
10.26
8.45
6.22
4.43
3.63
3.89
4.75
5.35
4.8
2.45
-1.8
-7.5
-13.75
-19.59
-24.28
-27.58
-29.68
-31.18
-32.74
-34.96
-38.13
-42.22
-46.82
-51.27
-54.76
-56.59
-56.3
-53.8
-49.37
-43.58
-37.24
-31.31
-26.75
-24.22
-23.78
-24.75
-25.84
-25.65
-23.32
-18.95
-13.55
-8.58
-5.14
-3.7
-3.95
-5.2
-6.8
-8.41
-9.82
-10.79
-10.97
-9.94
-7.59
-4.23
-0.54
2.72
5.11
6.64
7.69
8.74
10.05
11.55
12.94
13.87
14.22
14.18
14.24
15.05
17.19
21.03
26.7
34.05
42.7
52.07
61.41
69.74
75.92
78.77
77.48
71.85
62.62
51.35
39.96
30.08
22.56
17.19
13.02
8.74
3.25
-4.12
-13.59
-25.17
-38.69
-53.65
-69.08
-83.46
-95
-102.18
-104.31
-101.69
-95.3
-86.21
-74.9
-61.23
-44.68
-25.05
-3.02
19.76
41.09
58.93
71.94
79.62
82.09
79.52
71.86
58.88
40.55
17.54
-8.56
-35.48
-60.83
-82.54
-99.27
-110.41
-116.08
-117.08
-114.88
-111.43
-108.78
-108.37
-110.36
-113.37
-114.84
-111.92
-102.75
-87.14
-66.66
-44.05
-22.17
-3.22
11.7
22.46
29.52
33.51
35.06
34.82
33.5
32
31.18
31.54
33
34.81
35.86
35.23
32.65
28.73
24.76
22.16
21.71
23.24
25.59
27.23
26.88
24.06
19.1
12.86
6.3
0.1
-5.34
-9.85
-13.38
-15.97
-17.87
-19.54
-21.6
-24.59
-28.74
-33.83
-39.14
-43.81
-47.09
-48.65
-48.61
-47.31
-44.94
-41.34
-36.06
-28.76
-19.65
-9.67
-0.27
7.19
12.02
14.49
15.48
15.88
15.99
15.35
13.11
8.66
2.23
-5.03
-11.34
-15
-14.85
-10.41
-1.79
10.73
26.8
45.76
66.29
86.14
102.25
111.38
111.01
99.98
78.84
49.69
15.93
-17.92
-46.34
-63.27
-63.27
-43.32
-4.37
48.01
104.82
156.16
194.04
214.37
217.3
205.98
184.83
158.11
129.33
101.25
76.2
55.95
41.48
32.66
28.33
26.65
25.75
24.21
21.4
17.47
13.17
9.39
6.73
5.2
4.1
2.38
-0.88
-5.96
-12.26
-18.42
-22.92
-24.74
-23.89
-21.55
-19.71
-20.39
-24.83
-33.09
-44.21
-56.92
-70.4
-84.7
-100.54
-118.64
-138.97
-160.21
-179.65
-193.42
-197.09
-186.82
-160.44
-118.56
-64.92
-5.9
50.92
98.57
132.35
150.75
155.5
150.7
141.32
131.64
124.02
118.32
112.41
103.46
89.57
70.76
49.04
27.35
8.18
-7.4
-19.83
-30.29
-39.93
-49.32
-58.36
-66.57
-73.26
-77.68
-79.12
-77.11
-71.65
-63.41
-53.73
-44.41
-37.29
-33.89
-34.92
-40.13
-48.24
-57.29
-65.23
-70.55
-72.68
-71.96
-69.34
-65.76
-61.93
-58.22
-54.92
-52.38
-51
-51.01
-52.35
-54.58
-57.02
-58.95
-59.67
-58.41
-54.28
-46.41
-34.22
-17.84
1.79
23.02
43.78
61.83
74.92
80.91
78.15
66.05
45.72
20.27
-5.73
-27.36
-40.89
-44.88
-40.37
-30.15
-17.53
-5.1
5.74
14.69
22.09
28.42
34
39.01
43.59
47.87
51.99
56.13
60.51
65.28
70.37
75.27
78.97
80.1
77.49
70.69
60.31
47.87
35.18
23.64
13.94
6.02
-0.4
-5.51
-9.17
-11.14
-11.31
-9.87
-7.29
-4.18
-1.13
1.4
3.13
4.14
4.85
5.92
7.93
11.01
14.56
17.42
18.27
16.18
10.94
2.98
-6.85
-17.72
-28.98
-40.12
-50.6
-59.77
-66.91
-71.44
-73.12
-72.18
-69.24
-65.21
-60.96
-57.03
-53.42
-49.68
-45.15
-39.37
-32.39
-24.76
-17.3
-10.61
-4.81
0.39
5.32
9.85
13.14
13.99
11.44
5.48
-2.74
-11.23
-17.86
-21.1
-20.46
-16.45
-10.13
-2.74
4.71
11.36
16.57
19.78
20.71
19.56
17.11
14.59
13.31
14.21
17.48
22.54
28.21
33.23
36.64
37.96
37.22
34.72
30.93
26.39
21.75
17.72
14.95
13.77
13.95
14.71
14.9
13.43
9.56
3.14
-5.32
-14.81
-24.01
-31.61
-36.68
-38.96
-38.99
-37.96
-37.14
-37.4
-38.75
-40.42
-41.31
-40.56
-38.06
-34.43
-30.76
-27.96
-26.33
-25.5
-24.57
-22.69
-19.4
-14.92
-9.98
-5.53
-2.28
-0.43
0.45
1.21
2.9
6.47
12.59
21.47
32.83
45.86
59.32
71.72
81.59
87.87
90.13
88.7
84.4
78.17
70.67
62.17
52.65
42.14
31.01
19.97
9.91
1.61
-4.5
-8.31
-9.98
-9.8
-8.16
-5.65
-2.92
-0.54
1.28
2.78
4.52
7.07
10.67
15.13
19.9
24.39
28.19
31.17
33.44
35.18
36.58
37.83
39.21
41.07
43.73
47.37
51.85
56.8
61.64
65.78
68.69
69.99
69.45
67.03
62.91
57.51
51.48
45.53
40.28
36.1
32.92
30.32
27.61
24.12
19.51
13.91
8.09
3.39
1.45
3.8
11.22
23.13
37.34
50.33
58.12
57.59
47.7
29.95
8.07
-13.41
-30.68
-41.9
-47.52
-49.67
-51
-53.66
-58.69
-66.07
-75.02
-84.46
-93.32
-100.76
-106.34
-110.12
-112.6
-114.6
-116.81
-119.44
-121.97
-123.29
-122.06
-117.27
-108.59
-96.48
-81.86
-65.71
-48.71
-31.03
-12.43
7.41
28.56
50.42
71.67
90.41
104.67
113.05
115.29
112.49
106.76
100.38
94.97
90.84
87.17
82.69
76.57
69.03
61.22
54.6
50.16
47.91
46.95
45.99
43.99
40.53
35.84
30.5
25.12
20.07
15.54
11.59
8.28
5.63
3.51
1.47
-1.3
-5.76
-12.73
-22.45
-34.39
-47.37
-60.05
-71.63
-82.3
-93.31
-106.52
-123.49
-144.57
-168.27
-191.48
-210.29
-221.31
-222.85
-215.49
-201.73
-184.99
-168.36
-153.59
-140.84
-128.93
-116.25
-101.52
-84.25
-64.87
-44.47
-24.37
-5.84
10.15
23.04
32.7
39.52
44.33
48.36
52.89
58.89
66.67
75.67
84.67
92.14
96.8
98.11
96.36
92.52
87.82
83.33
79.66
76.96
75.06
73.62
72.29
70.69
68.49
65.48
61.67
57.38
53.23
49.96
48.22
48.31
50.12
53.19
56.88
60.52
63.56
65.6
66.45
66.13
64.87
63.12
61.43
60.4
60.54
62.12
65.07
68.94
72.89
75.94
77.27
76.44
73.59
69.31
64.35
59.29
54.31
49.2
43.58
37.07
29.45
20.62
10.6
-0.49
-12.29
-24.17
-35.24
-44.7
-52.12
-57.65
-61.86
-65.42
-68.68
-71.59
-73.81
-75.01
-75.17
-74.58
-73.68
-72.85
-72.22
-71.66
-70.92
-69.75
-68.06
-65.81
-62.98
-59.51
-55.31
-50.38
-45.02
-39.84
-35.73
-33.59
-34.02
-37.12
-42.45
-49.12
-56.1
-62.48
-67.69
-71.61
-74.54
-77.09
-79.98
-83.68
-88.18
-92.85
-96.56
-97.98
-96.01
-90.07
-80.23
-67.03
-51.31
-33.88
-15.45
3.38
22
39.71
55.87
70.03
82.21
92.87
102.83
112.84
123.27
133.89
143.88
152.16
157.76
160.16
159.4
155.88
150.08
142.23
132.28
119.96
105.04
87.51
67.69
46.16
23.67
0.99
-21.09
-41.79
-60.4
-76.41
-89.64
-100.22
-108.45
-114.61
-118.9
-121.64
-123.46
-125.45
-128.76
-134.13
-141.28
-148.87
-154.92
-157.63
-156.1
-150.53
-141.8
-130.83
-118.19
-104.08
-88.72
-72.57
-56.2
-39.9
-23.23
-5.22
15.14
38.13
62.91
87.66
110.28
129.02
142.84
151.41
154.84
153.55
148.25
140.03
130.24
120.3
111.36
104.14
98.87
95.45
93.56
92.77
92.61
92.71
92.9
93.22
93.83
94.7
95.39
95
92.4
86.64
77.33
64.77
49.81
33.51
16.84
0.5
-15.1
-29.72
-43.11
-55.04
-65.35
-74.09
-81.58
-88.27
-94.55
-100.49
-105.68
-109.32
-110.52
-108.54
-103.02
-94.03
-82.02
-67.71
-51.99
-35.91
-20.51
-6.72
4.9
14.23
21.63
27.67
32.91
37.61
41.66
44.65
46.13
45.79
43.63
39.97
35.27
30.05
24.72
19.63
15.06
11.29
8.6
7.16
6.98
7.84
9.27
10.66
11.49
11.39
10.39
8.82
7.23
6.13
5.79
6.15
6.91
7.73
8.39
8.87
9.37
10.06
11.03
12.22
13.51
14.78
16.11
17.73
20.03
23.41
28.09
33.98
40.46
46.45
50.58
51.55
48.57
41.57
31.26
18.8
5.48
-7.62
-19.88
-31.15
-41.69
-51.99
-62.53
-73.47
-84.42
-94.33
-101.7
-105.09
-103.63
-97.41
-87.5
-75.54
-63.23
-51.83
-41.95
-33.71
-26.95
-21.6
-17.68
-15.3
-14.4
-14.59
-15.28
-15.88
-16.23
-16.92
-19.18
-24.47
-33.77
-46.91
-62.43
-77.99
-91.15
-100.27
-105.05
-106.58
-106.9
-108.38
-113.13
-122.53
-136.89
-155.28
-175.5
-194.62
-209.7
-218.92
-222.27
-221.45
-219.01
-216.96
-215.6
-213.15
-206.55
-192.81
-170.38
-139.72
-103.05
-63.36
-23.52
14.3
48.58
78.25
102.44
120.55
132.6
139.31
142.22
143.21
144.03
145.83
148.92
152.87
156.91
160.21
162.22
162.79
162.17
160.94
159.75
159.11
159.07
159
157.73
153.97
147.06
137.44
126.7
117.02
110.26
107.18
107.12
108.42
109.05
107.2
101.59
91.51
76.82
58.11
36.89
15.56
-3.01
-16.36
-23.24
-24.06
-20.57
-15.11
-9.73
-5.86
-4.33
-5.79
-10.83
-19.68
-31.71
-45.07
-56.93
-64.33
-65.33
-59.74
-49.12
-36.04
-22.95
-11.35
-1.72
6.22
12.91
18.55
23.12
26.57
28.91
30.35
31.11
31.29
30.87
29.69
27.66
24.81
21.39
17.77
14.39
11.7
10.11
9.92
11.29
14.15
18.2
22.96
27.99
32.96
37.76
42.43
46.89
50.87
53.79
55.03
54.22
51.48
47.52
43.32
39.79
37.38
36.04
35.36
34.8
34.01
32.82
31.3
29.63
28.06
26.85
26.22
26.18
26.5
26.65
26.05
24.27
21.26
17.32
12.96
8.69
4.87
1.73
-0.55
-1.94
-2.66
-3.16
-4.13
-6.07
-8.99
-12.32
-15.19
-17.01
-17.84
-18.47
-20.04
-23.52
-29.23
-36.91
-45.85
-55.32
-64.68
-73.36
-80.8
-86.49
-90.1
-91.62
-91.43
-90.08
-88.16
-86.05
-83.9
-81.67
-79.18
-76.17
-72.35
-67.44
-61.38
-54.33
-46.82
-39.52
-33.02
-27.49
-22.6
-17.6
-11.62
-4.06
5.12
15.27
25.28
33.92
40.26
43.92
45.08
44.44
42.79
40.69
38.41
36.06
33.76
31.69
29.96
28.59
27.51
26.56
25.57
24.51
23.54
22.97
22.97
23.41
23.74
23.53
22.34
19.97
16.65
13.11
10.41
9.37
10.04
11.51
13.06
13.61
12.05
7.69
0.78
-7.51
-15.81
-23.35
-30.32
-35.82
-39.55
-41.98
-43.94
-45.66
-46.27
-44.34
-38.68
-28.95
-12.87
10.28
38.88
69.51
99.01
126.01
150.81
174.21
196.54
221.05
249.4
280.61
311.49
338.81
360.9
377.77
390.59
377.53
328.25
248.59
157.42
71.99
-1.49
-64.9
-121.02
-169.21
-205.9
-223.94
-220.7
-201.1
-174.68
-150.51
-133.65
-124.76
-121.75
-122.21
-122.12
-119.68
-115.69
-112.27
-110.87
-110.06
-107.74
-102.5
-94.72
-84.42
-72.61
-60.83
-50.51
-42.12
-34.91
-27.72
-19.75
-10.92
-0.98
9.81
20.59
30.17
37.57
42.47
45.08
45.98
45.7
44.72
43
39.82
34.16
25.11
12.37
-3.66
-21.85
-40.52
-57.74
-71.71
-81.09
-85.32
-84.67
-80.15
-73.29
-65.74
-59.03
-54.39
-52.61
-54
-58.24
-64.4
-71.04
-76.65
-80.24
-81.76
-82.12
-82.81
-85.07
-89.36
-95.19
-101.55
-107.69
-113.64
-120.3
-128.96
-140.55
-154.98
-170.95
-186.14
-197.79
-203.31
-200.97
-190.29
-172.28
-149.26
-124.4
-100.94
-81.49
-67.52
-59.12
-55.11
-53.38
-51.34
-46.47
-36.8
-21.25
0.1
26.02
54.25
81.92
106.16
124.66
136.31
141.43
141.69
139.5
137.16
136.1
136.47
137.46
137.97
137.34
135.77
134.1
133.3
133.79
135.24
136.67
137.03
135.73
132.87
129.05
124.89
120.72
116.39
111.59
106.13
100.09
93.85
87.76
81.87
75.89
69.21
61.2
51.47
40.06
27.43
14.28
1.36
-10.71
-21.61
-31.21
-39.59
-46.93
-53.48
-59.47
-65.11
-70.52
-75.7
-80.61
-85.21
-89.49
-93.33
-96.47
-98.33
-98.16
-95.27
-89.34
-80.65
-69.96
-58.34
-46.74
-35.84
-25.95
-17.19
-9.73
-3.81
0.35
2.8
4.08
5.26
7.71
12.75
21.25
33.4
48.72
66.3
85.1
104.15
122.6
139.63
154.37
166
173.88
177.72
177.62
173.88
166.78
156.5
143.2
127.31
109.67
91.52
74.19
58.61
45.11
33.46
23.14
13.72
5.04
-2.82
-9.74
-15.67
-20.67
-24.84
-28.24
-30.91
-32.91
-34.43
-35.67
-36.78
-37.7
-38.16
-37.77
-36.17
-33.19
-28.91
-23.62
-17.8
-12.02
-6.88
-2.98
-0.77
-0.5
-2.11
-5.27
-9.41
-13.95
-18.44
-22.67
-26.69
-30.74
-35.1
-40.06
-45.88
-52.73
-60.76
-69.99
-80.4
-91.89
-104.25
-117.02
-129.36
-139.77
-146.09
-145.92
-137.35
-119.83
-94.67
-64.95
-34.7
-7.87
12.7
25.73
31.43
31.02
26.28
19.06
11.2
4.23
-0.69
-3.13
-3.48
-2.83
-2.51
-3.45
-5.7
-8.27
-9.64
-8.46
-4.25
2.24
9.37
15.26
18.65
19.21
17.43
14.09
9.62
3.71
-4.6
-16.52
-32.83
-53.34
-76.79
-101.06
-123.96
-143.72
-159.37
-170.62
-177.41
-179.63
-177.08
-169.73
-158.04
-143.02
-125.91
-107.76
-89.13
-70.19
-51.04
-32.12
-14.28
1.5
14.54
24.81
32.93
39.88
46.62
53.76
61.47
69.55
77.64
85.38
92.51
98.78
104
107.94
110.39
111.26
110.73
109.29
107.64
106.53
106.4
107.28
108.64
109.53
108.76
105.25
98.35
88.02
74.98
60.47
45.96
32.65
21.1
11.06
1.68
-8.02
-18.65
-30.08
-41.49
-51.65
-59.45
-64.31
-66.27
-65.87
-63.81
-60.63
-56.59
-51.69
-45.85
-39.07
-31.57
-23.69
-15.85
-8.3
-1.17
5.5
11.57
16.83
21
23.85
25.27
25.39
24.61
23.36
21.93
20.31
18.23
15.39
11.59
6.98
2.04
-2.39
-5.48
-6.75
-6.22
-4.34
-1.77
0.76
2.66
3.58
3.86
4.01
4.38
5
5.66
6.13
6.22
5.87
5.06
4.73
5.63
7.92
11.13
14.65
18.25
22.08
26.37
31.03
37.04
44.81
53.82
62.81
70.67
76.99
81.92
85.79
88.66
92.58
99.38
109.82
123.19
137.97
152.67
166.21
178.27
178.73
162.37
130.95
92.58
55.63
24.26
-1.02
-20.9
-34.35
-42.69
-44.79
-39.9
-28.93
-14.54
-0.04
11.87
18.89
19.82
14.32
4.86
-5.54
-14.34
-20.33
-23.41
-24.14
-23.54
-22.74
-22.97
-23.99
-25.37
-26.86
-28.54
-30.44
-32.17
-33.08
-32.61
-30.88
-28.19
-25.56
-24.41
-25.86
-30.07
-35.95
-41.6
-45.09
-45.34
-42.21
-36.66
-30.4
-25.2
-22.32
-22.18
-24.4
-28.09
-32.3
-36.23
-39.43
-41.76
-43.28
-44.13
-44.55
-44.78
-45.09
-45.7
-46.71
-47.97
-49.19
-50.05
-50.43
-50.58
-51.02
-52.33
-54.83
-58.48
-63.04
-68.38
-74.78
-82.9
-93.39
-106.21
-120.2
-133.21
-142.69
-146.64
-144.29
-136.17
-123.67
-108.42
-91.86
-75.27
-59.95
-47.41
-39.12
-35.95
-37.65
-42.59
-48.2
-51.86
-51.77
-47.52
-39.93
-30.5
-20.59
-10.87
-1.22
9.04
20.62
33.82
48.28
62.95
76.31
86.73
92.9
94.31
91.42
85.68
79.05
73.35
69.66
68.03
67.65
67.24
65.6
61.98
56.33
49.33
42.25
36.76
34.49
36.45
42.59
51.58
61.1
68.5
71.6
69.3
61.66
49.69
34.9
18.9
3.21
-10.89
-22.4
-30.73
-35.78
-38.05
-38.47
-38.14
-38.03
-38.68
-40.1
-41.88
-43.46
-44.32
-44.28
-43.43
-42.08
-40.48
-38.67
-36.46
-33.53
-29.65
-24.71
-18.8
-12.08
-4.77
2.76
9.85
15.5
18.68
18.71
15.8
11.08
6.39
3.5
3.48
6.34
11.18
16.77
22.13
26.82
30.95
34.73
38.17
40.87
42.15
41.34
38.1
32.59
25.51
17.85
10.55
4.29
-0.75
-4.84
-8.41
-11.79
-14.84
-16.93
-17.1
-14.43
-8.41
0.7
11.88
23.47
33.58
40.4
42.5
39.04
29.87
15.72
-1.7
-19.85
-35.75
-46.66
-50.83
-47.96
-39.19
-26.61
-12.59
0.82
12.19
20.63
25.63
26.73
23.6
16.22
5.36
-7.14
-18.33
-24.9
-24.18
-15.37
-0.06
18.11
34.8
46.61
52.34
53.17
51.69
50.53
51.18
53.72
57.38
61.41
65.56
70.02
74.66
78.58
80.07
77.46
70.04
58.86
46.44
35.75
28.91
26.35
26.71
27.77
27.47
24.74
19.66
13.04
5.93
-0.81
-6.49
-10.52
-12.35
-11.59
-8.27
-2.96
3.33
9.52
14.81
18.87
21.83
24.08
26.04
27.97
30
32.17
34.56
37.34
40.75
45.09
50.54
57.07
64.33
71.7
78.44
83.91
87.65
89.51
89.55
88.02
85.37
82.14
78.85
75.76
72.68
68.97
63.88
56.88
47.98
37.7
26.74
15.59
4.33
-7.3
-19.54
-32.38
-45.53
-58.66
-71.55
-84.31
-97.2
-110.39
-123.56
-135.62
-144.63
-148.17
-144.12
-131.67
-112.01
-88.21
-64.31
-43.8
-28.45
-17.86
-10.04
-2.46
6.98
19.38
34.85
52.57
70.93
87.56
99.58
104.27
100.03
87.06
67.56
45.11
23.58
6.06
-5.78
-11.66
-12.36
-9.07
-2.95
5.07
14.32
24.23
34.26
43.65
51.51
56.8
58.64
56.63
51.05
42.96
33.92
25.44
18.5
13.25
9.08
5.05
0.22
-6.07
-14.29
-24.77
-37.78
-53.38
-71.23
-90.56
-110.33
-129.64
-148
-165.46
-182.32
-198.64
-213.74
-226.11
-233.76
-234.96
-228.91
-216.17
-198.38
-177.67
-155.98
-134.73
-114.76
-96.66
-80.96
-68.19
-58.76
-52.76
-49.95
-49.86
-51.96
-55.79
-60.97
-67.13
-73.76
-80.17
-85.53
-88.97
-89.91
-88.26
-84.5
-79.42
-73.78
-67.97
-61.99
-55.75
-49.4
-43.54
-38.85
-35.72
-33.84
-32.22
-29.54
-24.56
-16.44
-4.78
10.3
28.02
46.96
65.14
80.65
92.26
99.93
104.7
108.1
111.34
114.77
117.89
119.83
119.9
117.9
114.07
108.72
101.95
93.61
83.5
71.78
59.17
46.92
36.46
28.92
24.58
22.83
22.37
21.75
19.95
16.56
11.86
6.43
0.85
-4.45
-9.28
-13.53
-17.16
-20.08
-22.18
-23.32
-23.38
-22.29
-20.1
-16.98
-13.21
-9.01
-4.38
0.93
7.33
15.19
24.47
34.63
44.62
53.18
59.24
62.25
62.3
60.01
56.3
52.1
48.19
45.08
43.02
42
41.81
42.13
42.65
43.22
43.83
44.51
45.25
45.86
46.03
45.42
43.8
41.21
37.88
34.24
30.81
28.07
26.21
25.08
24.14
22.66
20.18
16.8
13.26
10.63
9.81
11.08
14.08
18.05
22.27
26.28
29.84
32.69
34.34
34.13
31.59
26.75
20.39
13.92
8.9
6.43
6.82
9.51
13.38
17.24
20.24
22.02
22.65
22.31
21.07
18.84
15.51
11.14
6.08
0.88
-3.84
-7.65
-10.4
-12.2
-13.34
-14.28
-15.56
-17.8
-21.5
-26.87
-33.68
-41.23
-48.49
-54.49
-58.58
-60.65
-61.11
-60.69
-60.2
-60.31
-61.37
-63.41
-66.1
-68.88
-71.14
-72.51
-73.09
-73.4
-74.14
-75.81
-78.22
-80.4
-80.92
-78.4
-72.15
-62.44
-50.35
-37.34
-24.72
-13.43
-4.01
3.14
7.75
9.71
9.31
7.45
5.44
4.62
5.81
8.94
13.11
17.07
19.83
21.06
21.2
21.2
22.07
24.47
28.59
34.08
40.3
46.5
52.04
56.51
59.84
62.23
64.06
65.69
67.28
68.81
70.09
70.99
71.53
71.92
72.39
73.14
74.14
75.29
76.38
77.22
77.68
77.66
76.95
75.26
72.2
67.38
60.56
51.72
41.12
29.16
16.41
3.39
-9.39
-21.59
-32.92
-43.26
-52.55
-60.82
-68.16
-74.66
-80.37
-85.24
-89.07
-91.58
-92.45
-91.43
-88.47
-83.76
-77.75
-70.92
-63.64
-56.02
-47.89
-39.05
-29.41
-19.16
-8.76
1.16
10.02
17.38
23.11
27.26
30.05
31.73
32.48
32.41
31.55
30.03
28.08
26.14
24.72
24.19
24.66
25.85
27.2
28.03
27.83
26.3
23.47
19.6
15.06
10.28
5.62
1.31
-2.61
-6.29
-10.01
-14.01
-18.35
-22.74
-26.66
-29.51
-30.93
-30.86
-29.51
-27.2
-24.22
-20.74
-16.94
-13.12
-9.75
-7.34
-6.31
-6.74
-8.38
-10.7
-13.05
-14.86
-15.78
-15.74
-15.02
-14.13
-13.63
-13.88
-14.89
-16.22
-17.1
-16.69
-14.35
-9.92
-3.83
2.96
9.15
13.57
15.47
14.85
12.42
9.39
7.1
6.54
8.06
11.34
15.44
19.06
20.89
20.03
16.25
10.14
2.86
-4.28
-10.4
-15.28
-19.29
-23.04
-26.89
-30.7
-33.97
-36.09
-36.62
-35.44
-32.68
-28.61
-23.67
-18.58
-14.41
-12.46
-13.95
-19.58
-29.05
-41.13
-53.94
-65.64
-75.14
-82.32
-87.82
-92.38
-96.3
-99.33
-101.01
-101.35
-101.22
-101.99
-104.64
-108.91
-113
-114.38
-110.93
-101.87
-87.82
-69.98
-49.18
-25.48
1.35
31
62.04
92.2
119.27
141.91
159.74
172.57
179.77
179.92
171.63
154.6
130.37
101.94
72.8
45.74
22.3
2.91
-12.49
-24.11
-32.39
-38.24
-43
-47.89
-53.24
-58.07
-60.5
-58.73
-52.13
-41.61
-29.25
-17.29
-7.25
0.23
5.22
7.87
8.33
6.9
4.53
2.98
4.34
10.21
20.9
35.05
50.24
63.82
73.87
79.57
81.04
78.81
73.39
65.19
54.65
42.44
29.51
16.9
5.54
-3.94
-11.25
-16.35
-19.43
-20.88
-21.28
-21.34
-21.76
-23.07
-25.45
-28.71
-32.38
-35.83
-38.44
-39.73
-39.5
-37.92
-35.63
-33.61
-32.94
-34.37
-37.86
-42.37
-46.05
-46.72
-42.55
-32.77
-17.93
0.2
19.12
36.32
49.79
58.39
61.82
60.38
54.73
45.67
34.15
21.23
8.12
-4.07
-14.53
-23.14
-30.53
-37.95
-46.79
-58.08
-72.17
-88.59
-106.22
-123.57
-139
-150.98
-158.3
-160.23
-156.82
-148.96
-138.17
-126.31
-114.98
-105.24
-97.46
-91.55
-87.18
-83.95
-81.28
-78.24
-73.57
-65.95
-54.47
-39
-20.37
-0.02
20.45
39.76
57.12
72.18
84.83
95
102.62
107.66
110.35
111.22
111.04
110.71
110.96
112.22
114.51
117.54
120.85
123.98
126.49
128.03
128.21
126.72
123.45
118.43
111.88
103.84
93.99
81.59
65.82
46.27
23.37
-1.5
-26.24
-48.55
-66.48
-78.85
-85.33
-86.44
-83.44
-78.07
-72.29
-67.96
-66.43
-68.36
-73.66
-81.59
-91.01
-100.63
-109.15
-115.48
-118.79
-118.58
-114.72
-107.31
-96.68
-83.33
-67.91
-51.29
-34.45
-18.42
-4.08
8.04
17.81
25.53
31.7
36.84
41.31
45.16
48.18
50.1
50.75
50.31
49.34
48.74
49.43
52.11
57.03
63.9
72
80.38
88.13
94.63
99.62
103.16
105.56
107.18
108.38
109.4
110.37
111.27
112
112.39
112.44
112.41
112.9
114.72
118.49
124.26
131.16
137.48
141.1
140.05
133.19
120.58
103.58
84.48
65.92
50.1
38.25
30.28
24.99
20.45
14.55
5.63
-7.11
-23.35
-41.58
-59.46
-74.37
-84.22
-88.1
-86.55
-81.26
-74.41
-67.95
-63.13
-60.51
-60.08
-61.46
-63.79
-65.79
-65.93
-62.89
-56.19
-46.52
-35.55
-25.23
-17.02
-11.31
-7.46
-4.31
-0.79
3.53
8.43
13.31
17.62
21.08
23.78
25.97
27.8
29.21
29.9
29.58
28.2
26.26
24.86
25.41
29.26
37.09
48.67
62.81
77.69
91.37
102.17
108.93
111.06
108.64
102.42
93.9
85.11
78.2
74.83
75.65
80.11
86.72
93.66
99.32
102.75
103.64
102.18
98.77
93.87
87.98
81.59
75.26
69.51
64.67
60.79
57.54
54.27
50.13
44.41
36.77
27.39
16.95
6.38
-3.44
-12.03
-19.32
-25.62
-31.43
-37.15
-43.01
-49
-55.05
-61.03
-66.81
-72.14
-76.69
-79.94
-81.4
-80.75
-78.05
-73.74
-68.6
-63.46
-58.99
-55.56
-53.18
-51.64
-50.55
-49.48
-48.04
-45.86
-42.75
-38.73
-34.06
-29.24
-24.91
-21.62
-19.73
-19.2
-19.61
-20.27
-20.41
-19.5
-17.43
-14.56
-11.58
-9.23
-8.04
-8.14
-9.34
-11.26
-13.5
-15.8
-17.95
-19.87
-21.59
-23.27
-25.21
-27.71
-30.83
-34.18
-36.88
-37.76
-35.89
-30.93
-23.4
-14.48
-5.53
2.4
8.82
13.79
17.61
20.54
22.61
23.7
23.77
23.09
22.26
22.05
23.12
25.62
29.14
32.71
35.2
35.6
33.34
28.41
21.25
12.59
3.16
-6.46
-15.97
-25.36
-34.86
-44.76
-55.29
-66.4
-77.74
-88.78
-99.01
-108.14
-116.3
-123.94
-131.61
-139.61
-147.73
-155.15
-160.57
-162.54
-159.94
-152.31
-139.96
-123.86
-105.27
-85.38
-65.04
-44.73
-24.63
-4.82
14.6
33.49
51.69
69.12
85.75
101.46
115.95
128.68
138.94
146.13
149.99
150.73
148.92
