0
0
0
0
0
0
0
0
0
0
0
0.01
0.01
0
-0.03
-0.05
-0.05
0
0.13
0.36
0.66
1.01
1.37
1.72
2.06
2.4
2.79
3.24
3.8
4.42
5.06
5.66
6.2
6.68
7.15
7.68
8.31
9.14
10.09
11.04
11.88
12.56
13.14
13.76
14.65
15.96
17.91
20.32
22.9
25.38
27.58
29.57
31.68
34.32
37.81
42.54
48.15
54.1
59.83
64.97
69.58
74.14
79.34
85.71
93.76
103
112.62
121.73
129.77
136.75
143.3
150.75
157.77
166.64
177.95
191.79
206.97
220.57
228.25
225.36
208.53
176.87
132.76
80.05
23.07
-34.94
-92.44
-149.16
-205.23
-260.37
-313.74
-363.87
-409.83
-450.91
-486.5
-515.74
-537.23
-549.22
-549.96
-538.37
-514.21
-478.67
-433.88
-382.45
-327.02
-269.84
-212.63
-156.66
-102.95
-52.37
-5.9
35.58
71.43
101.35
125.5
144.38
158.69
169.15
176.37
180.75
182.57
182.07
179.51
175.23
169.65
163.18
156.15
148.81
141.3
133.69
126.02
118.33
110.69
103.16
95.8
88.68
81.83
75.25
68.95
62.95
57.25
51.86
46.78
42.03
37.59
33.45
29.61
26.07
22.81
19.83
17.11
14.67
12.48
10.54
8.83
7.35
6.07
4.97
4.05
3.27
2.62
2.09
1.65
1.3
1.01
0.79
0.61
0.48
0.37
0.29
0.24
0.2
0.18
0.17
0.17
0.19
0.21
0.24
0.27
0.3
0.35
0.39
0.43
0.48
0.53
0.58
0.63
0.68
0.74
0.8
0.87
0.94
1.02
1.11
1.22
1.33
1.45
1.6
1.76
1.93
2.13
2.35
2.6
2.86
3.16
3.48
3.85
4.24
4.66
5.12
5.62
6.15
6.73
7.35
8.01
8.71
9.46
10.25
11.09
11.97
12.9
13.88
14.92
16.02
17.19
18.41
19.67
20.94
22.16
23.26
24.14
24.68
24.75
24.26
23.1
21.23
18.64
15.4
11.56
7.3
2.82
-1.68
-6
-9.91
-13.28
-15.96
-17.91
-19.1
-19.55
-19.33
-18.56
-17.35
-15.84
-14.15
-12.39
-10.64
-8.91
-7.21
-5.53
-3.87
-2.22
-0.58
1.05
2.65
4.24
5.88
7.67
9.56
11.59
13.74
16
18.32
20.66
23.02
25.49
28.28
31.29
34.53
37.96
41.49
44.94
48.17
51.13
53.97
57.08
60.41
64.07
68.01
72.05
75.82
78.93
81.21
82.77
84.14
85.28
86.3
87.06
86.99
85.11
80.21
70.95
55.8
37.97
18.8
-0.72
-20.06
-39.17
-58.41
-78.42
-100.01
-123.91
-150.34
-179.18
-208.68
-235.56
-255.84
-266.03
-264.37
-251.45
-229.89
-203.29
-175.52
-149.19
-125.48
-104.62
-86.43
-70.73
-57.41
-46.23
-36.65
-28.26
-20.52
-13.12
-6.1
0.15
5.15
8.59
10.67
12
13.31
15.22
17.99
21.35
24.69
27.36
28.92
29.38
29.03
28.3
27.58
27.03
26.6
26.12
25.4
24.39
23.24
22.26
21.8
22.06
23
24.23
25.19
25.3
24.31
22.37
20.11
18.4
18.06
19.59
22.99
27.85
33.4
38.79
43.23
46.06
46.86
45.53
42.26
37.5
31.85
25.91
20.25
15.32
11.39
8.58
6.73
5.54
4.58
3.53
2.25
0.86
-0.4
-1.33
-1.87
-2.1
-2.18
-2.2
-2.16
-2.08
-2.06
-2.27
-2.88
-3.88
-5.01
-5.91
-6.27
-6.07
-5.57
-5.21
-5.33
-6.02
-7.09
-8.25
-9.23
-9.9
-10.19
-10
-9.17
-7.59
-5.29
-2.53
0.26
2.67
4.44
5.6
6.37
7.04
7.82
8.68
9.47
9.97
10.02
9.58
8.74
7.65
6.47
5.37
4.49
3.97
3.9
4.28
4.94
5.55
5.76
5.35
4.33
3.01
1.78
0.95
0.63
0.67
0.84
0.92
0.81
0.52
0.08
-0.51
-1.3
-2.3
-3.43
-4.55
-5.49
-6.21
-6.84
-7.6
-8.65
-9.88
-10.92
-11.28
-10.53
-8.61
-5.8
-2.63
0.35
2.76
4.53
5.81
6.86
7.82
8.67
9.25
9.39
9
8.15
7.07
6.06
5.34
4.96
4.82
4.73
4.5
4.1
3.59
3.19
3.06
3.29
3.75
4.17
4.25
3.79
2.85
1.69
0.71
0.16
0.03
0.08
-0.04
-0.59
-1.65
-3.01
-4.4
-5.54
-6.27
-6.61
-6.71
-6.83
-7.28
-8.3
-9.95
-12.05
-14.1
-15.43
-15.47
-13.99
-11.16
-7.55
-3.82
-0.53
2.05
3.96
5.41
6.62
7.71
8.73
9.58
10.18
10.42
10.19
9.49
8.38
7.03
5.68
4.58
3.85
3.5
3.43
3.51
3.65
3.83
4.05
4.33
4.57
4.59
4.23
3.41
2.24
1.02
0.12
-0.23
-0.08
0.27
0.35
-0.15
-1.29
-2.86
-4.45
-5.68
-6.42
-6.73
-6.82
-6.93
-7.22
-7.76
-8.55
-9.48
-10.39
-11.01
-11.03
-10.22
-8.51
-6.06
-3.19
-0.28
2.36
4.57
6.25
7.42
8.09
8.29
8.13
7.67
7.01
6.25
5.49
4.86
4.52
4.58
4.94
5.35
5.41
4.79
3.54
2.09
1.04
0.89
1.63
2.79
3.65
3.7
2.89
1.64
0.54
-0.08
-0.23
-0.25
-0.47
-1.02
-1.76
-2.45
-3.01
-3.53
-4.18
-5.05
-6.09
-7.12
-8.03
-8.91
-9.98
-11.43
-13.25
-15.07
-16.32
-16.43
-15.14
-12.55
-9.12
-5.45
-2.08
0.65
2.64
4.03
5.07
6.03
7.13
8.34
9.46
10.16
10.14
9.33
7.88
6.17
4.53
3.22
2.3
1.77
1.64
1.94
2.67
3.71
4.69
5.22
5.01
4.14
2.97
2.06
1.74
2.02
2.5
2.6
1.98
0.59
-1.27
-3.19
-4.93
-6.45
-7.82
-9.05
-10.05
-10.68
-11
-11.31
-12.1
-13.7
-16.03
-18.49
-20.19
-20.33
-18.63
-15.39
-11.31
-7.26
-3.83
-1.22
0.69
2.18
3.47
4.65
5.66
6.49
7.15
7.73
8.29
8.79
9
8.69
7.75
6.34
4.87
3.83
3.57
4.13
5.22
6.37
7.14
7.32
6.88
6.01
4.92
3.78
2.7
1.69
0.79
-0.01
-0.69
-1.31
-1.99
-2.86
-4.06
-5.61
-7.41
-9.28
-11.06
-12.66
-14.17
-15.73
-17.4
-19.12
-20.62
-21.53
-21.49
-20.31
-18
-14.81
-11.09
-7.18
-3.38
0.14
3.29
6.02
8.3
10.11
11.37
12.02
12.09
11.68
11
10.27
9.66
9.21
8.81
8.29
7.52
6.54
5.52
4.7
4.26
4.2
4.35
4.49
4.43
4.14
3.64
3.02
2.31
1.51
0.6
-0.43
-1.61
-2.94
-4.48
-6.32
-8.54
-11.15
-14.09
-17.18
-20.19
-22.82
-24.81
-25.86
-25.75
-24.35
-21.75
-18.2
-14.12
-9.94
-5.98
-2.37
0.95
4.04
6.89
9.34
11.12
11.98
11.81
10.75
9.13
7.38
5.91
4.98
4.7
5.01
5.8
6.84
7.94
8.84
9.3
9.13
8.26
6.84
5.16
3.57
2.3
1.34
0.47
-0.65
-2.25
-4.39
-6.94
-9.71
-12.6
-15.65
-19
-22.76
-26.93
-31.31
-35.5
-38.96
-41.13
-41.54
-39.97
-36.5
-31.59
-25.94
-20.25
-15.11
-10.77
-7.13
-3.89
-0.69
2.68
6.16
9.44
12.12
13.83
14.38
13.8
12.33
10.33
8.21
6.36
5.06
4.42
4.29
4.32
3.99
2.92
0.97
-1.65
-4.47
-7.03
-9.11
-10.93
-12.96
-15.73
-19.52
-24.28
-29.79
-35.83
-42.34
-49.37
-56.85
-64.56
-72.14
-79.53
-87.21
-96.03
-106.51
-117.97
-128.23
-134.2
-133.26
-124.73
-110.45
-94.21
-80.23
-71.49
-68.9
-71.58
-77.86
-86.38
-96.49
-107.84
-119.79
-130.99
-139.77
-145.03
-147.1
-147.68
-149.25
-153.68
-161.04
-169.43
-175.7
-176.98
-172.03
-161.79
-148.78
-135.93
-125.28
-117.43
-111.7
-106.93
-102.24
-97.35
-92.52
-88.07
-83.95
-79.61
-74.09
-66.47
-56.21
-43.38
-28.58
-12.57
4.16
21.72
40.79
62.25
86.75
114.3
144.37
176.37
210.13
245.88
283.74
322.83
360.73
393.88
418.79
433.63
439.11
438.3
435.34
433.89
435.99
441.99
451.21
462.57
474.81
486.01
493.05
491.83
478.54
451.55
412.88
368.09
324.47
288.17
261.74
243.51
229.01
213.67
195.24
174.51
154.18
136.72
122.71
110.6
98
83.44
67.61
53.21
43.67
41.45
46.73
57.03
68.01
74.95
74.34
65.02
48.27
26.99
4.28
-17.82
-38.95
-60.14
-82.93
-108.56
-137.59
-169.99
-205.22
-242.12
-278.63
-311.72
-337.83
-353.96
-358.73
-352.91
-339.14
-320.86
-301.2
-282.15
-264.47
-248.12
-232.77
-218.08
-203.59
-188.64
-172.34
-153.87
-132.95
-110.2
-87.2
-66.29
-49.94
-39.89
-36.63
-39.08
-44.9
-51.21
-55.48
-56.18
-52.99
-46.49
-37.61
-27.08
-15.2
-2.07
11.92
25.78
37.9
46.49
50.32
49.22
44.13
36.8
29.09
22.36
17.2
13.48
10.75
8.51
6.56
4.9
3.7
3.02
2.79
2.85
3.01
3.09
2.93
2.42
1.39
-0.32
-2.67
-5.49
-8.44
-11.2
-13.59
-15.68
-17.68
-19.83
-22.28
-25.15
-28.53
-32.55
-37.31
-42.77
-48.59
-54.1
-58.38
-60.51
-59.83
-56.11
-49.67
-41.17
-31.49
-21.43
-11.61
-2.41
5.95
13.35
19.55
24.3
27.36
28.65
28.43
27.18
25.57
24.24
23.58
23.67
24.34
25.26
26.09
26.64
26.88
26.85
26.62
26.18
25.42
24.22
22.48
20.19
17.41
14.29
11.01
7.71
4.53
1.47
-1.46
-4.27
-7.04
-9.9
-13.07
-16.79
-21.25
-26.46
-32.15
-37.86
-42.92
-46.72
-48.72
-48.62
-46.32
-41.94
-35.85
-28.61
-20.91
-13.45
-6.83
-1.49
2.33
4.52
5.09
4.21
2.22
-0.34
-2.75
-4.25
-4.18
-2.18
1.72
7.04
13.01
18.67
23.11
25.55
25.46
22.65
17.44
10.73
4.04
-0.74
-1.79
1.99
10.56
22.76
36.65
50.27
62.16
71.64
78.53
82.78
84.22
82.52
77.43
68.86
57
42.11
24.61
5.27
-14.51
-32.52
-46.16
-53.15
-52.5
-45.03
-33.14
-19.94
-8.03
1.23
7.9
12.84
16.96
20.66
23.67
25.34
25
22.41
17.9
12.4
7.21
3.72
2.95
5.28
10.34
17.12
24.37
30.91
35.87
38.71
39.17
37.12
32.62
26.04
18.07
9.71
2.02
-4.2
-8.73
-11.9
-14.43
-16.98
-19.66
-21.98
-22.95
-21.8
-18.54
-14.28
-10.93
-10.48
-14.02
-21.18
-30.27
-38.9
-44.89
-47.02
-45.25
-40.43
-33.72
-26.19
-18.54
-11.19
-4.45
1.34
5.87
8.97
10.74
11.59
12.03
12.49
13.07
13.54
13.49
12.61
10.96
9.01
7.39
6.61
6.77
7.54
8.34
8.58
7.88
6.18
3.71
0.91
-1.54
-2.93
-2.79
-1.12
1.37
3.52
4.17
2.78
-0.38
-4.35
-8.11
-11.12
-13.56
-16.06
-19.13
-22.77
-26.33
-28.9
-29.78
-28.81
-26.39
-23.21
-19.84
-16.51
-13.07
-9.11
-4.24
1.74
8.69
16.11
23.22
29.06
32.74
33.71
31.88
27.75
22.15
15.98
9.97
4.58
0.02
-3.59
-6.18
-7.65
-7.93
-6.98
-4.76
-1.21
3.64
9.53
15.89
21.86
26.6
29.59
30.9
31.06
30.71
30.24
29.46
27.8
24.64
19.69
13.18
5.74
-1.91
-9.27
-16.15
-22.63
-28.78
-34.45
-39.21
-42.43
-43.59
-42.49
-39.42
-35.03
-30.15
-25.44
-21.25
-17.54
-14.07
-10.61
-7.1
-3.7
-0.7
1.63
3.14
3.79
3.74
3.17
2.36
1.55
1.02
0.93
1.34
2.15
3.16
4.13
4.77
4.91
4.48
3.55
2.31
1.06
0.11
-0.29
-0.06
0.62
1.37
1.74
1.36
0.15
-1.7
-3.8
-5.74
-7.26
-8.28
-8.92
-9.41
-10.07
-11.22
-13.09
-15.76
-19.03
-22.41
-25.29
-27.08
-27.47
-26.49
-24.47
-21.79
-18.71
-15.37
-11.75
-7.88
-3.93
-0.16
3.16
5.88
8.01
9.7
11.11
12.31
13.26
13.84
13.97
13.62
12.94
12.15
11.48
11.12
11.11
11.31
11.51
11.47
11.01
10.08
8.75
7.19
5.55
3.98
2.54
1.26
0.15
-0.8
-1.55
-2.12
-2.62
-3.19
-4.02
-5.26
-6.96
-9.06
-11.46
-14.03
-16.7
-19.35
-21.75
-23.56
-24.39
-23.92
-22.12
-19.24
-15.71
-11.98
-8.34
-4.94
-1.8
1.06
3.58
5.65
7.2
8.22
8.75
8.86
8.6
8.05
7.3
6.49
5.79
5.29
5.03
4.98
5.05
5.19
5.34
5.45
5.47
5.35
5.09
4.7
4.21
3.71
3.25
2.81
2.31
1.66
0.77
-0.32
-1.5
-2.65
-3.69
-4.71
-5.91
-7.56
-9.77
-12.51
-15.48
-18.24
-20.32
-21.35
-21.19
-19.85
-17.56
-14.6
-11.28
-7.85
-4.51
-1.42
1.3
3.54
5.22
6.35
7.04
7.43
7.68
7.87
8
8.05
8.02
7.95
7.91
7.96
8.08
8.18
8.13
7.78
7.07
6.02
4.72
3.31
1.94
0.77
-0.13
-0.73
-1.11
-1.42
-1.86
-2.63
-3.85
-5.54
-7.55
-9.65
-11.62
-13.33
-14.85
-16.38
-18.15
-20.31
-22.88
-25.75
-28.7
-31.51
-33.98
-35.86
-36.91
-36.89
-35.68
-33.36
-30.34
-27.24
-24.8
-23.59
-23.81
-25.2
-27.1
-28.73
-29.44
-29.04
-27.86
-26.64
-26.14
-26.76
-28.33
-30.24
-31.77
-32.47
-32.37
-31.9
-31.59
-31.76
-32.37
-33.17
-33.88
-34.24
-33.85
-31.97
-27.49
-19.3
-6.89
9.13
27.17
45.31
62.45
78.9
96.26
116.32
139.73
165.06
189.08
208.01
219.08
221.44
216.14
205.3
191.18
175.72
160.47
146.86
136.17
129.24
126
125
123.52
118
105.07
82.96
52.9
19.95
-7.89
-22.15
-17.36
6.29
42.36
80.33
109.6
123.07
118.57
97.95
65.19
24.84
-18.34
-59.12
-92.16
-113.14
-120.45
-116.2
-105.65
-94.86
-88.11
-86.43
-88.03
-90.37
-91.66
-91.5
-90.65
-90.18
-90.67
-92.06
-93.76
-95.12
-96.51
-98.26
-99.99
-100.67
-99.4
-96.12
-91.57
-86.79
-82.54
-80.91
-82.76
-87.14
-91.6
-93.81
-92.74
-88.64
-82.59
-75.9
-72.9
-76.64
-87.09
-101.16
-114.94
-126
-133.93
-139.92
-145.98
-158.01
-179.82
-210.86
-246.3
-280.29
-308.97
-330.94
-346.37
-330.66
-270.83
-172.85
-59.74
45.34
130.43
193.67
238.2
268.55
289.06
299.26
298.89
289.56
275.54
261.25
249.18
239.84
232.64
226.72
218.45
205.06
186.11
164.29
143.1
124.74
109.9
98.28
89.29
80.56
70.58
58.61
45.62
32.89
21.01
10.13
0.32
-8.38
-17.73
-23.63
-25.51
-23.7
-19.15
-12.97
-5.88
2.02
11
21.05
32.18
43.65
55.49
68.07
81.49
95.1
107.36
116.18
119.67
117
108.15
94.89
80.13
66.96
57.5
52.21
49.73
47.48
42.98
34.57
22.67
9.38
-2.82
-12.7
-21.43
-32.34
-49.32
-74.38
-106
-138.41
-163.38
-173.05
-162.83
-133
-88.58
-37.95
9.19
43.71
58.9
51.94
24.94
-15.02
-57.42
-91.44
-109.86
-111.64
-102.2
-90.86
-86.57
-94.31
-113.54
-139.25
-164.19
-181.56
-186.52
-177.14
-155.08
-125.72
-97.67
-80.69
-81.9
-102.09
-134.35
-166.25
-185.08
-183.47
-162.22
-129.21
-94.79
-66.94
-48.52
-38.07
-32.9
-31.84
-36.18
-48.08
-68.12
-93.59
-118.97
-138.48
-148.86
-150.86
-148.45
-146.4
-147.39
-150.46
-151.63
-146.18
-131.46
-108.32
-80.65
-53.44
-30.26
-11.87
3.7
19.99
40.5
67.23
99.81
135.17
168.24
193.26
205.91
205.15
193.87
177.85
163.22
153.62
148.78
145.17
138.54
126.59
110.27
92.99
78.39
68.1
61.01
54.2
44.84
31.79
15.84
-1.21
-18.02
-34.53
-51.36
-68.54
-84.32
-95.19
-97.27
-88.28
-68.88
-42.87
-15.66
7.78
24.71
35.16
41.21
45.58
50.29
56
62.06
67.14
69.92
69.6
66.22
60.42
53.31
46.18
40.26
36.6
35.79
37.7
41.33
45.07
47.28
47.04
44.52
40.79
37.06
33.91
30.99
27.37
22.33
15.92
8.98
2.57
-2.6
-6.43
-9.01
-9.95
-8.09
-1.83
10.06
27.38
48.19
69.14
86.46
97.11
99.65
94.59
84.01
70.77
57.6
46.23
37.17
29.95
23.74
18
12.83
8.75
6.26
5.35
5.34
5.27
4.36
2.44
0.01
-2.18
-3.54
-3.94
-3.8
-3.85
-4.81
-7.1
-10.67
-15.03
-19.45
-23.18
-25.73
-26.98
-27.21
-26.86
-26.39
-26.12
-26.33
-27.31
-29.28
-32.28
-35.77
-38.64
-39.41
-36.84
-30.54
-21.25
-10.66
-0.64
7.41
13.04
16.72
19.39
21.9
24.62
27.36
29.52
30.43
29.64
27.15
23.39
19.12
15.18
12.28
10.87
10.95
12.21
14.16
16.28
18.11
19.37
19.96
19.83
19.08
17.85
16.43
15.09
14.07
13.43
12.96
12.28
10.97
8.79
5.79
2.25
-1.41
-4.82
-7.81
-10.42
-12.83
-15.26
-17.82
-20.38
-22.56
-23.74
-23.34
-21.06
-17.07
-11.96
-6.49
-1.21
3.63
8.12
12.35
16.25
19.57
21.98
23.3
23.63
23.29
22.66
21.97
21.34
20.72
20.11
19.51
18.93
18.33
17.65
16.83
15.84
14.67
13.34
11.89
10.39
8.97
7.76
6.91
6.35
5.94
5.45
4.73
3.72
2.54
1.29
0.02
-1.28
-2.66
-4.12
-5.65
-7.31
-9.23
-11.57
-14.31
-17.12
-19.3
-20.12
-19.06
-16.15
-11.91
-7.11
-2.47
1.54
4.79
7.28
9.04
10.07
10.43
10.3
9.98
9.76
9.75
9.91
10
9.74
9.03
8
6.95
6.2
5.91
5.97
6.08
5.93
5.39
4.59
3.82
3.34
3.23
3.29
3.17
2.62
1.57
0.22
-1.15
-2.33
-3.29
-4.16
-5.08
-6.1
-7.1
-7.95
-8.64
-9.34
-10.31
-11.8
-13.86
-16.25
-18.57
-20.27
-20.83
-19.91
-17.37
-13.43
-8.64
-3.75
0.47
3.55
5.43
6.44
7.13
7.94
9.07
10.41
11.66
12.59
13.08
13.25
13.29
13.37
13.53
13.57
13.25
12.38
11.02
9.5
8.29
7.75
7.84
8.21
8.31
7.74
6.43
4.63
2.67
0.75
-1.17
-3.31
-5.73
-8.29
-10.6
-12.31
-13.22
-13.5
-13.57
-13.91
-14.87
-16.5
-18.62
-20.89
-23.02
-24.81
-26.19
-27.02
-27.1
-26.16
-23.98
-20.6
-16.38
-11.95
-7.96
-4.88
-2.83
-1.6
-0.9
-0.42
0.02
0.5
1.05
1.67
2.46
3.5
4.9
6.61
8.42
10.01
11.1
11.69
12.03
12.52
13.45
14.69
15.71
15.88
14.78
12.47
9.51
6.68
4.58
3.48
3.22
3.38
3.47
3.06
1.9
0.01
-2.37
-4.81
-6.82
-8.13
-8.73
-8.88
-9.01
-9.51
-10.57
-12.2
-14.19
-16.18
-17.78
-18.55
-18.19
-16.6
-13.89
-10.4
-6.52
-2.65
0.98
4.2
6.89
9.02
10.57
11.59
12.23
12.57
12.71
12.66
12.43
12.09
11.7
11.29
10.83
10.21
9.36
8.34
7.38
6.7
6.4
6.28
5.93
4.93
3.15
0.8
-1.66
-3.73
-5.24
-6.31
-7.29
-8.55
-10.17
-12.01
-13.74
-15.12
-16.11
-16.96
-18.1
-19.82
-22.17
-24.86
-27.35
-29.03
-29.49
-28.56
-26.41
-23.39
-19.9
-16.3
-12.81
-9.51
-6.48
-3.81
-1.58
0.1
1.21
1.82
2.11
2.23
2.25
2.13
1.73
0.98
-0.09
-1.3
-2.36
-3.07
-3.31
-3.17
-2.8
-2.41
-2.24
-2.45
-3.21
-4.5
-6.12
-7.59
-8.32
-7.83
-5.97
-2.97
0.61
4.13
7.13
9.31
10.5
10.59
9.44
6.99
3.42
-0.78
-4.92
-8.4
-10.91
-12.59
-13.96
-15.6
-17.75
-20.13
-21.96
-22.34
-20.65
-16.91
-11.81
-6.45
-1.88
1.23
2.71
2.86
2.22
1.36
0.87
1.13
2.33
4.34
6.7
8.65
9.3
8.02
4.71
0.12
-4.26
-6.59
-5.27
0.28
9.37
20.1
30.12
37.5
41.32
41.84
40.05
36.94
33.07
28.49
23.03
16.74
10.08
3.77
-1.6
-5.82
-9.12
-11.91
-14.5
-16.89
-18.91
-20.36
-21.3
-22.05
-22.98
-24.32
-25.87
-27.07
-27.22
-25.79
-22.64
-18.17
-13.12
-8.29
-4.26
-1.25
0.86
2.36
3.51
4.41
5.12
5.65
6.11
6.62
7.22
7.78
8.08
7.92
7.26
6.3
5.28
4.44
3.81
3.3
2.7
1.82
0.6
-0.85
-2.26
-3.36
-3.95
-4.12
-4.18
-4.51
-5.31
-6.43
-7.52
-8.3
-8.79
-9.42
-10.62
-12.61
-15.1
-17.42
-18.94
-19.41
-19.07
-18.43
-17.81
-17.21
-16.24
-14.45
-11.62
-7.87
-3.58
0.83
5.06
8.98
12.51
15.52
17.79
19.04
19.18
18.31
16.77
14.98
13.22
11.62
10.13
8.75
7.59
6.85
6.74
7.21
7.95
8.47
8.29
7.21
5.38
3.28
1.44
0.2
-0.46
-0.87
-1.54
-2.95
-5.3
-8.42
-11.88
-15.12
-17.69
-19.45
-20.58
-21.41
-22.29
-23.43
-24.89
-26.58
-28.34
-29.93
-31.03
-31.26
-30.2
-27.5
-23.13
-17.42
-11.05
-4.88
0.31
4.09
6.42
7.63
8.24
8.77
9.59
10.84
12.48
14.3
16.07
17.49
18.35
18.51
17.94
16.79
15.36
13.98
12.88
12.17
11.73
11.38
10.91
10.22
9.36
8.41
7.4
6.29
5.08
3.71
2.31
0.96
-0.25
-1.37
-2.51
-3.78
-5.25
-6.98
-9.04
-11.55
-14.58
-18.07
-21.75
-25.08
-27.49
-28.48
-27.79
-25.52
-22.07
-18.09
-14.28
-11.21
-9.09
-7.8
-6.89
-5.83
-4.27
-2.14
0.29
2.68
4.71
6.27
7.35
8.04
8.47
8.77
9.15
9.81
10.95
12.61
14.65
16.75
18.5
19.47
19.38
18.25
16.35
14.17
12.26
10.99
10.37
10.08
9.65
8.62
6.87
4.54
1.98
-0.46
-2.59
-4.42
-6.13
-7.9
-9.87
-12.08
-14.51
-17.08
-19.68
-22.03
-23.82
-24.66
-24.26
-22.57
-19.74
-16.13
-12.13
-8.17
-4.55
-1.47
0.97
2.78
4.07
4.99
5.77
6.51
7.23
7.79
8.03
7.86
7.3
6.54
5.77
5.23
5.04
5.25
5.86
6.76
7.86
8.97
9.87
10.35
10.23
9.4
7.8
5.56
2.86
0.08
-2.35
-4.07
-4.91
-5
-4.81
-5.05
-6.43
-9.43
-14
-19.59
-25.21
-29.65
-31.85
-31.13
-27.43
-21.27
-13.7
-5.92
0.99
6.41
10.21
12.72
14.5
16
17.55
19.16
20.64
21.74
22.15
21.69
20.28
18.04
15.19
12.14
9.33
7.21
6.09
6.03
6.81
8.01
9.08
9.67
9.63
9.08
8.33
7.67
7.21
6.93
6.66
6.22
5.53
4.6
3.59
2.65
1.96
1.42
0.83
-0.26
-2.26
-5.4
-9.55
-14.25
-18.78
-22.31
-24.15
-23.81
-21.09
-16.07
-9.08
-0.68
8.48
17.7
26.38
34.09
40.62
45.99
50.33
53.85
56.62
58.57
59.46
59.18
57.85
55.99
54.26
53.32
53.55
54.86
56.79
58.51
58.93
56.82
51.13
41.42
28.32
13.69
0.31
-8.96
-12.18
-9.04
-1.03
9.29
19.24
26.97
31.88
34.42
35.39
35.38
34.36
31.84
27.32
20.74
12.67
4.13
-3.76
-10.13
-14.45
-16.67
-17.02
-16.03
-14.44
-13.14
-12.92
-14.3
-17.34
-21.61
-26.36
-30.8
-34.29
-36.49
-37.37
-37.1
-35.91
-34.04
-31.72
-29.14
-26.53
-24.11
-22.03
-20.35
-18.94
-17.52
-15.85
-13.83
-11.6
-9.45
-7.72
-6.67
-6.39
-6.84
-7.87
-9.39
-11.33
-13.66
-16.4
-19.57
-23.1
-26.87
-30.58
-33.89
-36.55
-38.39
-39.39
-39.55
-38.77
-36.85
-33.58
-28.89
-22.96
-16.29
-9.45
-3.05
2.53
7.14
10.88
13.9
16.31
18.09
19.04
19.07
18.12
16.44
14.44
12.58
11.17
10.22
9.46
8.55
7.22
5.43
3.38
1.42
-0.17
-1.26
-1.97
-2.61
-3.52
-4.99
-7.1
-9.76
-12.66
-15.51
-18.11
-20.44
-22.65
-25.01
-27.75
-31.01
-34.83
-39.13
-43.74
-48.41
-52.77
-56.46
-59.2
-60.93
-61.79
-62.12
-62.24
-62.43
-62.83
-63.62
-65.07
-67.58
-71.63
-77.59
-85.62
-95.37
-105.86
-115.53
-122.5
-125.47
-124.68
-122.39
-122.39
-128.61
-143.38
-166.22
-193.64
-220.13
-239.82
-248.16
-242.98
-224.77
-196.32
-161.93
-126.36
-93.67
-66.33
-44.74
-27.39
-11.62
5.3
25.1
48
72.61
96.36
116.25
129.74
135.59
134.2
127.5
118.37
109.79
104.01
102.11
104.08
109.37
117.57
128.72
143.07
160.29
178.77
195.38
206.45
209.39
204.11
193.28
181.01
170.78
163.56
157.63
149.67
136.79
117.91
93.86
66.56
38.03
10.13
-15.01
-34.33
-44.21
-41.67
-26.23
-1.04
27.61
52.36
67.32
70.08
62
46.97
29.45
12.82
-1.17
-11.78
-18.31
-19.4
-13.28
1.3
23.92
52.07
81.59
107.98
127.86
139.87
144.9
145.55
145.22
147.05
153.03
163.46
176.75
190.01
200.15
205.13
204.85
201.14
196.78
194.14
194.17
196.24
198.78
200.12
198.99
194.56
186.04
172.65
153.73
129.25
100.12
67.93
34.51
1.3
-30.88
-61.76
-91.17
-118.69
-143.54
-164.78
-181.59
-193.51
-200.59
-203.37
-202.82
-200.24
-197.04
-194.34
-192.63
-191.56
-189.94
-186.25
-179.29
-168.73
-155.21
-140.15
-125.16
-111.45
-99.57
-89.39
-80.45
-72.32
-64.76
-57.81
-51.62
-46.29
-41.78
-37.88
-34.37
-31.08
-28
-25.25
-22.94
-21.09
-19.59
-18.22
-16.76
-15.15
-13.43
-11.78
-10.41
-9.49
-9.05
-9.11
-9.6
-10.51
-11.84
-13.54
-15.45
-17.28
-18.78
-19.74
-20.2
-20.39
-20.55
-20.9
-21.34
-21.61
-21.29
-20.02
-17.62
-14.13
-9.75
-4.81
0.3
5.19
9.53
13.04
15.55
16.98
17.46
17.22
16.64
16.04
15.62
15.35
14.92
13.96
12.21
9.69
6.75
3.95
1.8
0.54
0.13
0.33
0.76
1.12
1.19
0.86
0.14
-0.94
-2.29
-3.81
-5.42
-7.04
-8.63
-10.14
-11.52
-12.71
-13.71
-14.52
-15.18
-15.78
-16.47
-17.38
-18.64
-20.28
-22.18
-23.97
-25.17
-25.29
-24
-21.36
-17.78
-13.95
-10.58
-8.11
-6.61
-5.81
-5.26
-4.62
-3.73
-2.68
-1.67
-0.84
-0.28
0.08
0.33
0.56
0.82
1.13
1.44
1.77
2.16
2.68
3.4
4.35
5.46
6.59
7.53
8.12
8.35
8.37
8.42
8.7
9.27
9.98
10.51
10.6
10.06
9.01
7.75
6.64
5.92
5.49
4.99
3.92
1.92
-1.13
-4.92
-8.86
-12.25
-14.43
-15.02
-13.86
-11.17
-7.31
-2.84
1.7
5.83
9.11
11.26
12.07
11.52
9.74
7.04
3.88
0.73
-2.02
-4.16
-5.69
-6.75
-7.53
-8.24
-9
-9.79
-10.5
-10.98
-11.08
-10.78
-10.18
-9.41
-8.6
-7.74
-6.7
-5.29
-3.34
-0.83
2.05
4.99
7.6
9.55
10.76
11.34
11.62
11.95
12.57
13.51
14.53
15.3
15.49
14.83
13.32
11.18
8.86
6.96
6.08
6.58
8.44
11.24
14.2
16.54
17.64
17.23
15.26
11.96
7.56
2.3
-3.58
-9.92
-16.59
-23.48
-30.42
-37.07
-42.8
-46.79
-48.24
-46.76
-42.62
-36.77
-30.63
-25.62
-22.76
-22.44
-24.46
-28.21
-32.92
-37.77
-42.09
-45.42
-47.66
-49.08
-50.3
-51.97
-54.52
-58
-62.06
-66.18
-69.83
-72.64
-74.35
-74.79
-73.78
-71.32
-67.57
-63.01
-58.28
-54.04
-50.71
-48.41
-47.05
-46.46
-46.37
-46.25
-45.17
-41.92
-35.27
-24.67
-10.46
6.18
24.04
42.63
62.49
84.81
110.28
138.23
166.25
190.87
208.75
217.84
217.75
209.62
195.48
177.52
157.75
137.71
118.4
100.32
83.57
68.03
53.52
39.99
27.43
15.8
4.93
-5.28
-14.67
-22.64
-28.32
-30.89
-30.17
-26.77
-22
-17.32
-13.73
-11.39
-9.72
-7.71
-4.5
0.2
6.03
12.21
17.86
22.3
25.21
26.57
26.57
25.52
23.77
21.68
19.61
17.87
16.73
16.43
17.01
18.48
20.63
23.1
25.28
26.42
25.62
22.07
15.25
5.2
-7.36
-21.19
-34.71
-46.37
-54.83
-59.21
-59.08
-54.54
-46.23
-35.27
-23.11
-11.29
-1.1
6.56
11.3
13.08
12.12
8.85
3.8
-2.33
-8.67
-14.28
-18.25
-19.97
-19.3
-16.68
-13
-9.34
-6.46
-4.58
-3.26
-1.81
0.44
3.68
7.6
11.55
14.87
17.05
17.81
17.11
14.99
11.7
7.58
3.14
-1.02
-4.36
-6.58
-7.72
-8.02
-7.89
-7.61
-7.25
-6.73
-5.91
-4.78
-3.61
-2.8
-2.67
-3.37
-4.75
-6.54
-8.58
-10.91
-13.79
-17.46
-21.82
-26.43
-30.52
-33.26
-34.09
-32.85
-29.89
-25.82
-21.4
-17.27
-13.88
-11.38
-9.74
-8.75
-8.2
-7.89
-7.76
-7.9
-8.45
-9.59
-11.28
-13.24
-14.85
-15.39
-14.24
-11.19
-6.59
-1.28
3.63
7.04
8.16
6.66
2.72
-3.06
-9.81
-16.66
-22.89
-28.12
-32.35
-35.83
-38.94
-42
-45.19
-48.49
-51.66
-54.12
-55.01
-53.22
-47.74
-38.02
-24.47
-8.44
8
22.57
33.36
39.09
39.27
34.2
24.97
13.42
1.97
-6.84
-11.14
-10.24
-5.09
2.2
9.12
13.7
15.16
13.93
11.19
8.21
5.81
4.2
3.05
1.84
0.03
-2.67
-6.3
-10.6
-15.03
-18.89
-21.5
-22.4
-21.48
-19.05
-15.78
-12.51
-10.07
-9.08
-9.83
-12.09
-15.14
-17.88
-19.14
-18.03
-14.34
-8.56
-1.74
5.06
11.13
16.37
21.19
26.11
31.49
37.32
43.38
49.41
55.31
61.1
66.67
71.63
75.23
76.66
75.51
72.06
67.34
62.78
59.69
58.77
59.82
61.85
63.43
63.06
59.59
52.43
41.77
28.54
14.09
-0.12
-13.02
-24.19
-33.88
-42.7
-51.11
-59.13
-66.29
-71.91
-75.5
-77
-76.81
-75.59
-74.01
-72.48
-71.09
-69.59
-67.49
-64.3
-59.56
-53.13
-45.14
-36
-26.27
-16.53
-7.32
0.9
7.69
12.74
15.94
17.54
18.15
18.57
19.57
21.57
24.59
28.27
32.14
35.82
39.14
42.16
44.99
47.67
50.12
52.04
53.05
52.77
50.86
47.21
41.94
35.44
28.29
21.07
14.28
8.16
2.77
-1.94
-6.02
-9.54
-12.6
-15.41
-18.35
-21.78
-25.98
-30.9
-36.18
-41.2
-45.25
-47.72
-48.22
-46.71
-43.45
-39
-33.97
-28.91
-24.17
-19.86
-15.95
-12.39
-9.22
-6.55
-4.48
-3.01
-1.93
-0.95
0.26
1.83
3.64
5.35
6.51
6.81
6.17
4.86
3.38
2.21
1.65
1.69
2.04
2.31
2.18
1.49
0.27
-1.33
-3.09
-4.9
-6.72
-8.65
-10.93
-13.81
-17.47
-21.86
-26.74
-31.59
-35.84
-38.91
-40.37
-40
-37.87
-34.27
-29.67
-24.64
-19.71
-15.3
-11.63
-8.78
-6.74
-5.37
-4.58
-4.27
-4.43
-5.14
-6.5
-8.63
-11.48
-14.83
-18.26
-21.37
-23.85
-25.74
-27.38
-29.28
-31.89
-35.36
-39.59
-44.22
-48.8
-52.71
-55.19
-55.36
-52.45
-46.15
-36.97
-26.18
-15.43
-6.09
1.23
6.73
11.01
14.47
17.05
18.28
17.77
15.68
12.82
10.31
9.12
9.55
11.17
13.13
14.51
14.86
14.31
13.5
13.08
13.38
14.05
14.19
12.72
8.99
3.24
-3.32
-8.84
-11.54
-10.42
-5.54
1.99
10.56
18.67
25.48
30.88
35.39
39.66
44.14
48.9
53.62
57.9
61.44
64.21
66.37
68.19
69.87
71.52
73.12
74.58
75.65
75.88
74.71
71.56
66.12
58.43
49.02
38.69
28.28
18.56
10.03
3.19
-1.56
-3.82
-3.36
-0.36
4.5
10.14
15.43
19.51
22.1
23.42
24.01
24.4
24.94
25.76
26.91
28.43
30.19
31.71
32.09
30.27
25.54
18.02
8.73
-0.69
-8.64
-14.15
-17.03
-17.68
-16.75
-14.84
-12.43
-10.01
-8.17
-7.48
-8.36
-10.7
-13.96
-17.35
-20.16
-22.13
-23.54
-25.05
-27.35
-30.75
-34.9
-38.83
-41.24
-41
-37.6
-31.35
-23.2
-14.38
-5.84
1.9
8.81
15.05
20.79
26.01
30.58
34.34
37.15
38.88
39.36
38.38
35.76
31.62
26.43
21.01
16.25
12.78
10.81
10.07
10.07
10.33
10.54
10.5
9.91
8.39
5.42
0.67
-5.8
-13.41
-21.21
-28.28
-34
-38.29
-41.45
-43.93
-45.96
-47.53
-48.38
-48.22
-46.97
-44.75
-41.88
-38.61
-35.05
-31.02
-26.17
-20.18
-13.01
-5
3.12
10.46
16.27
20.11
22.03
22.38
21.73
20.55
19.16
17.68
16.11
14.48
12.88
11.54
10.65
10.3
10.33
10.38
10.05
9.07
7.42
5.36
3.34
1.84
1.21
1.6
2.89
4.74
6.64
8.14
8.85
8.67
7.72
6.22
4.43
2.53
0.66
-1
-2.27
-3.04
-3.34
-3.41
-3.59
-4.12
-4.94
-5.67
-5.78
-4.86
-2.89
-0.11
3.03
6.19
9.28
12.4
15.67
19.08
22.33
24.91
26.35
26.37
25.08
22.87
20.32
17.97
16.14
14.95
14.26
13.82
13.36
12.68
11.79
10.78
9.86
9.17
8.74
8.41
7.92
6.99
5.42
3.2
0.41
-2.77
-6.22
-9.82
-13.54
-17.36
-21.25
-25.1
-28.82
-32.29
-35.47
-38.4
-41.24
-44.11
-47.02
-49.79
-52.08
-53.48
-53.63
-52.41
-49.88
-46.25
-41.73
-36.49
-30.66
-24.35
-17.85
-11.63
-6.31
-2.49
-0.51
-0.25
-1.07
-1.93
-1.66
0.68
5.54
12.73
21.55
31.02
40.12
48.1
54.48
59.11
62.07
63.56
63.85
63.27
62.1
60.53
58.59
56.11
52.75
48.24
42.52
35.87
28.96
22.74
18.09
15.47
14.68
14.73
14.17
11.64
6.52
-0.75
-8.77
-15.84
-20.55
-22.39
-21.7
-19.32
-16.09
-12.47
-8.59
-4.38
0.08
4.47
8.3
11.15
12.79
13.27
12.65
10.94
7.91
3.26
-3.1
-10.78
-18.89
-26.22
-31.7
-34.81
-35.75
-35.24
-34.15
-33.13
-32.39
-31.85
-31.33
-30.76
-30.21
-29.85
-29.72
-29.78
-29.97
-30.24
-30.84
-32.12
-34.49
-38.13
-42.73
-47.42
-51
-52.25
-50.44
-45.52
-38.16
-29.4
-20.32
-11.73
-4.13
2.17
7.01
10.36
12.35
13.34
13.72
13.84
13.81
13.56
12.98
12.06
10.93
9.74
8.55
7.24
5.65
3.64
1.29
-1.16
-3.4
-5.21
-6.6
-7.72
-8.87
-10.36
-12.33
-14.8
-17.53
-20.16
-22.29
-23.57
-23.88
-23.35
-22.38
-21.43
-20.93
-21.02
-21.53
-21.94
-21.53
-19.6
-15.74
-10.06
-3.26
3.47
8.93
12.33
13.73
13.99
14.33
15.78
18.66
22.58
26.76
30.56
33.79
36.6
39.18
41.31
42.38
41.63
38.6
33.51
27.24
21.04
16.07
12.99
11.86
12.22
13.36
14.69
15.94
17.14
18.49
20.13
21.95
23.62
24.74
25
24.29
22.66
20.18
16.83
12.54
7.32
1.37
-4.87
-10.85
-16.11
-20.34
-23.39
-25.02
-24.79
-22.13
-16.69
-8.74
0.64
9.87
17.54
22.94
26.45
29.1
31.87
35.08
38.16
40.07
39.93
37.57
33.63
29.2
25.15
21.75
18.59
14.87
9.96
3.74
-3.26
-10.2
-16.31
-21.32
-25.54
-29.53
-33.73
-38.01
-41.62
-43.56
-43.04
-40.01
-35.18
-29.8
-25.22
-22.55
-22.43
-25.03
-30.12
-37.05
-44.8
-51.99
-57.05
-58.6
-55.87
-48.9
-38.61
-26.58
-14.49
-3.81
4.6
10.54
14.37
16.71
18.24
19.44
20.53
21.46
22.02
21.96
21.14
19.62
17.68
15.74
14.19
13.34
13.3
13.93
14.97
16.01
16.67
16.63
15.71
13.96
11.56
8.78
5.84
2.8
-0.33
-3.53
-6.65
-9.35
-11.24
-12.16
-12.31
-12.34
-13.15
-15.55
-19.9
-25.93
-32.82
-39.33
-44.08
-45.83
-43.8
-37.89
-28.79
-17.89
-6.84
2.92
10.6
16.17
20.18
23.42
26.53
29.86
33.42
37.03
40.4
43.11
44.68
44.65
42.75
39.05
34.09
28.72
23.93
20.53
18.88
18.83
19.71
20.69
21.04
20.39
18.79
16.58
14.14
11.76
9.5
7.26
4.87
2.19
-0.84
-4.23
-7.86
-11.61
-15.4
-19.28
-23.49
-28.41
-34.26
-40.89
-47.66
-53.5
-57.18
-57.75
-54.84
-48.78
-40.51
-31.33
-22.44
-14.75
-8.64
-3.98
-0.22
3.24
6.91
11.03
15.5
20
24.1
27.37
29.47
30.19
29.55
27.81
25.47
23.15
21.42
20.6
20.66
21.21
21.62
21.36
20.23
18.49
16.74
15.64
15.57
16.39
17.53
18.21
17.86
16.33
13.9
11.05
8.21
5.53
2.89
0.01
-3.31
-7.17
-11.57
-16.55
-22.28
-28.98
-36.7
-45.06
-53.04
-59.15
-61.8
-59.84
-53.06
-42.22
-29.01
-15.44
-3.37
5.9
11.8
14.46
14.57
13.16
11.37
10.15
9.99
10.78
12.04
13.18
13.93
14.51
15.51
17.47
20.46
23.93
26.84
28.19
27.46
24.87
21.2
17.46
14.47
12.58
11.65
11.23
10.76
9.8
8.16
5.99
3.67
1.6
0.06
-1.02
-2.01
-3.42
-5.66
-8.85
-12.75
-16.84
-20.52
-23.16
-24.37
-24.01
-22.32
-19.82
-17.16
-14.84
-13.05
-11.61
-10.23
-8.77
-7.43
-6.63
-6.79
-8.06
-10.19
-12.62
-14.7
-15.81
-15.39
-12.99
-8.36
-1.67
6.34
14.35
20.84
24.61
25.29
23.43
20.25
17.13
15.04
14.32
14.76
15.81
16.93
17.73
17.97
17.56
16.5
14.9
12.99
11.06
9.45
8.35
7.79
7.53
7.1
5.95
3.67
0.2
-3.99
-7.95
-10.57
-11
-9.01
-5.04
-0.1
4.78
8.85
11.87
14
15.53
16.66
17.41
17.66
17.3
16.33
14.88
13.16
11.36
9.59
7.86
6.08
4.18
2.19
0.33
-0.97
-1.23
-0.13
2.26
5.43
8.56
10.9
12.03
12.09
11.63
11.25
11.25
11.52
11.62
11.12
9.92
8.34
6.98
6.41
6.83
7.96
9.18
9.69
8.78
6
1.32
-4.9
-11.85
-18.44
-23.59
-26.45
-26.68
-24.47
-20.5
-15.62
-10.67
-6.18
-2.39
0.79
3.63
6.36
9.02
11.33
12.72
12.57
10.51
6.75
2.08
-2.42
-5.78
-7.61
-8.15
-8.11
-8.22
-8.89
-10.08
-11.46
-12.65
-13.49
-14.09
-14.74
-15.64
-16.81
-18.06
-19.15
-19.87
-20.2
-20.29
-20.39
-20.78
-21.64
-23.02
-24.86
-26.95
-28.98
-30.62
-31.54
-31.42
-30.07
-27.42
-23.6
-18.9
-13.74
-8.62
-3.96
-0.1
2.82
4.82
5.96
6.36
6.06
5.12
3.62
1.75
-0.19
-1.75
-2.53
-2.27
-1.01
0.93
2.93
4.34
4.64
3.64
1.6
-0.88
-3.04
-4.29
-4.41
-3.72
-2.83
-2.43
-2.89
-4.17
-5.84
-7.44
-8.69
-9.67
-10.73
-12.28
-14.5
-17.34
-20.48
-23.49
-25.93
-27.42
-27.65
-26.4
-23.58
-19.24
-13.57
-6.93
0.28
7.54
14.41
20.5
25.57
29.53
32.44
34.51
35.97
37.11
38.11
39.13
40.17
41.17
41.96
42.34
42.12
41.14
39.32
36.65
33.31
29.59
25.87
22.38
19.05
15.34
10.46
3.68
-5.37
-16.37
-28.44
-40.33
-50.75
-58.64
-63.29
-64.39
-62
-56.66
-49.36
-41.42
-34.25
-28.93
-25.89
-24.78
-24.61
-24.06
-22.02
-17.91
-11.83
-4.45
3.33
10.63
16.91
21.94
25.72
28.34
29.85
30.24
29.47
27.52
24.44
20.34
15.44
10.04
4.56
-0.5
-4.57
-7.23
-8.28
-7.9
-6.64
-5.19
-4.13
-3.66
-3.49
-2.99
-1.54
1.23
5.18
9.74
14.12
17.57
19.58
19.97
18.84
16.55
13.58
10.54
7.89
5.92
4.56
3.44
2.08
0.2
-2.12
-4.41
-5.97
-6.2
-4.8
-1.9
2.1
6.71
11.57
16.46
21.3
25.96
30.26
33.94
36.8
38.77
39.89
40.26
39.96
38.96
37.28
34.97
32.27
29.54
27.18
25.52
24.69
24.61
25.05
25.65
26
25.58
23.86
20.37
14.85
7.41
-1.4
-10.74
-19.66
-27.42
-33.62
-38.25
-41.55
-43.81
-45.31
-46.28
-46.93
-47.54
-48.39
-49.67
-51.3
-52.9
-53.78
-53.17
-50.51
-45.73
-39.37
-32.39
-25.92
-20.75
-17.17
-14.87
-13.25
-11.68
-9.8
-7.64
-5.49
-3.77
-2.77
-2.6
-3.12
-4.05
-5.03
-5.72
-5.82
-5.13
-3.55
-1.08
2.04
5.38
8.32
10.29
10.87
10.06
8.17
5.77
3.42
1.51
0.22
-0.53
-0.9
-1.1
-1.27
-1.53
-1.88
-2.32
-2.82
-3.46
-4.46
-6.1
-8.61
-11.99
-15.85
-19.56
-22.32
-23.54
-23.04
-21.07
-18.23
-15.32
-13.07
-12.02
-12.38
-13.95
-16.02
-17.55
-17.36
-14.59
-9.15
-1.9
5.62
11.68
15.09
15.61
13.88
11.01
7.91
5.02
2.35
-0.28
-2.87
-5.14
-6.71
-7.36
-7.13
-6.35
-5.37
-4.46
-3.72
-3.14
-2.72
-2.41
-2.22
-2.03
-1.71
-1.21
-0.53
0.26
1.17
2.28
3.71
5.51
7.48
9.23
10.2
10.01
8.62
6.45
4.29
3
3.34
5.59
9.63
14.92
20.87
26.98
33.1
39.3
45.73
52.3
58.61
63.99
67.79
69.71
69.84
68.44
65.67
61.23
54.51
44.84
32.03
16.65
0.03
-16.01
-29.7
-39.61
-45
-45.82
-42.77
-37.1
-30.36
-24.12
-19.57
-17.23
-16.93
-18.04
-19.69
-21.25
-22.39
-23.11
-23.55
-23.87
-24
-23.77
-22.96
-21.49
-19.55
-17.46
-15.48
-13.67
-11.74
-9.27
-5.89
-1.56
3.42
8.53
13.27
17.34
20.72
23.54
25.96
28.01
29.67
30.78
31.1
30.29
27.99
23.97
18.36
11.75
5.22
-0.08
-3.31
-4.31
-3.67
-2.36
-1.31
-0.91
-0.97
-0.97
-0.46
0.6
1.82
2.65
2.66
1.77
0.21
-1.66
-3.52
-5.21
-6.69
-8.03
-9.33
-10.76
-12.4
-14.33
-16.53
-18.93
-21.52
-24.4
-27.65
-31.29
-34.96
-38
-39.46
-38.54
-34.76
-28.36
-20.13
-11.22
-2.85
4.12
9.33
13
15.74
18.28
21.15
24.55
28.25
31.75
34.48
35.91
35.76
34.05
31.14
27.67
24.44
22.21
21.39
21.87
23.1
24.18
24.36
23.29
21.12
18.46
16.05
14.37
13.56
13.35
13.29
13
12.34
11.38
10.3
9.16
7.78
5.78
2.83
-1.09
-5.52
-9.66
-12.65
-13.97
-13.67
-12.33
-10.88
-10.07
-10.3
-11.36
-12.7
-13.69
-13.9
-13.26
-12.06
-10.71
-9.58
-8.85
-8.41
-7.96
-7.24
-6.16
-4.92
-3.86
-3.32
-3.38
-3.85
-4.28
-4.28
-3.6
-2.19
-0.15
2.42
5.33
8.33
10.91
12.47
12.38
10.28
6.24
0.62
-6.06
-13.41
-21.11
-28.79
-35.84
-41.48
-44.92
-45.73
-44.04
-40.52
-36.04
-31.43
-27.3
-24.05
-22.16
-22.09
-24.19
-28.31
-33.59
-38.56
-41.66
-41.79
-38.74
-33.27
-26.66
-20.2
-14.69
-10.36
-7.03
-4.37
-2.15
-0.26
1.24
2.31
2.92
3.1
2.89
2.43
1.93
1.67
1.89
2.77
4.36
6.57
9.18
11.82
14.09
15.56
15.99
15.39
14.17
13.01
12.6
13.35
15.14
17.41
19.4
20.6
20.95
20.86
20.96
21.72
23.28
25.41
27.77
30.02
31.99
33.62
34.81
35.44
35.34
34.49
33.06
31.38
29.65
27.71
24.99
20.78
14.67
6.92
-1.44
-9.02
-14.61
-17.65
-18.42
-17.71
-16.35
-14.86
-13.38
-11.9
-10.48
-9.36
-8.84
-9.05
-9.88
-11.08
-12.48
-14.14
-16.35
-19.36
-23.21
-27.52
-31.59
-34.63
-36.02
-35.61
-33.78
-31.23
-28.82
-27.24
-26.76
-27.28
-28.41
-29.74
-30.96
-31.9
-32.48
-32.55
-31.88
-30.15
-27.13
-22.78
-17.25
-10.87
-4.04
2.8
9.12
14.35
17.92
19.35
18.53
15.87
12.29
9.04
7.3
7.72
10.22
13.99
17.76
20.27
20.7
19.08
16.45
14.55
15.28
19.95
28.69
40.31
52.65
63.35
70.67
74
73.87
71.56
68.46
65.61
63.33
61.38
59.05
55.6
50.48
43.48
34.83
25
14.63
4.34
-5.32
-13.9
-21.08
-26.72
-30.9
-33.88
-36.03
-37.61
-38.75
-39.39
-39.41
-38.76
-37.57
-36.13
-34.83
-34.03
-33.91
-34.45
-35.37
-36.2
-36.43
-35.65
-33.71
-30.83
-27.5
-24.36
-21.9
-20.43
-19.9
-19.98
-20.18
-19.99
-18.89
-16.48
-12.58
-7.33
-1.31
4.54
9.08
11.34
10.88
8.01
3.68
-0.79
-4.24
-6.04
-6.25
-5.51
-4.56
-4.03
-4.14
-4.77
-5.63
-6.36
-6.59
-5.88
-3.76
0.19
6.07
13.45
21.33
28.4
33.46
35.9
35.82
33.85
30.75
26.95
22.48
17.16
10.99
4.47
-1.48
-5.87
-8.09
-8.26
-7.07
-5.39
-3.91
-2.9
-2.3
-1.94
-1.77
-1.9
-2.53
-3.77
-5.68
-8.16
-11.01
-13.88
-16.27
-17.72
-17.91
-17.03
-15.68
-14.77
-15.02
-16.67
-19.3
-22.04
-24.06
-24.88
-24.52
-23.31
-21.61
-19.58
-17.13
-14.14
-10.51
-6.33
-1.74
3.13
8.35
14.06
20.39
27.3
34.43
41.16
46.8
50.8
52.99
53.66
53.39
52.85
52.48
52.32
52.06
51.27
49.67
47.3
44.52
41.69
39.02
36.33
33.21
29.26
24.35
18.64
12.56
6.57
1.06
-3.71
-7.58
-10.52
-12.66
-14.34
-16.06
-18.21
-20.93
-24.05
-27.09
-29.49
-30.79
-30.66
-28.94
-25.66
-21.01
-15.54
-10.04
-5.38
-2.21
-0.67
-0.35
-0.53
-0.53
-0.03
0.85
1.65
1.92
1.48
0.48
-0.69
-1.58
-1.96
-1.85
-1.41
-0.8
0.01
1.15
2.69
4.48
6.15
7.19
7.21
6.11
4.06
1.4
-1.6
-4.76
-8.06
-11.45
-14.82
-17.99
-20.83
-23.33
-25.72
-28.39
-31.68
-35.66
-39.98
-43.84
-46.25
-46.33
-43.68
-38.49
-31.5
-23.62
-15.71
-8.31
-1.6
4.49
10.06
15.05
19.3
22.5
24.43
25.06
24.57
23.33
21.77
20.31
19.15
18.39
17.99
17.95
18.25
18.91
19.84
20.75
21.13
20.4
18.11
14.16
9
3.54
-1.23
-4.57
-6.3
-6.69
-6.35
-5.73
-5.1
-4.45
-3.68
-2.74
-1.65
-0.58
0.28
0.66
0.36
-0.76
-2.5
-4.33
-5.38
-4.77
-1.97
2.96
9.22
15.57
20.7
23.67
24.15
22.42
19.28
15.68
12.52
10.37
9.38
9.36
9.96
10.79
11.5
11.82
11.47
10.28
8.24
5.6
2.86
0.55
-1.04
-2.07
-3.04
-4.57
-6.96
-10.07
-13.29
-15.96
-17.73
-18.75
-19.64
-21.05
-23.3
-26.17
-29.04
-31.23
-32.44
-32.84
-32.96
-33.31
-34.03
-34.73
-34.57
-32.71
-28.65
-22.48
-14.93
-6.98
0.42
6.68
11.66
15.58
18.71
21.2
22.91
23.56
22.88
20.85
17.89
14.69
12.08
10.61
10.43
11.18
12.2
12.76
12.31
10.69
8.14
5.17
2.39
0.26
-1.1
-1.92
-2.7
-3.9
-5.74
-8.04
-10.34
-12.12
-13.07
-13.2
-12.82
-12.38
-12.32
-12.89
-14.21
-16.11
-18.27
-20.09
-20.91
-20.13
-17.48
-13.06
-7.33
-0.88
5.72
11.99
17.58
22.17
25.61
27.91
29.35
30.42
31.5
32.73
33.87
34.46
34.09
32.68
30.55
28.23
26.31
25.12
24.7
24.83
25.15
25.31
25.06
24.27
23.03
21.62
20.46
19.91
20.14
21.03
22.1
22.8
22.62
21.34
19.12
16.4
13.77
11.74
10.63
10.42
10.77
11.12
10.83
9.5
7.13
4.26
1.74
0.43
0.68
2.24
4.29
5.85
6.24
5.31
3.35
0.79
-2.19
-5.65
-9.76
-14.44
-19.19
-23.2
-25.72
-26.42
-25.61
-24.04
-22.55
-21.72
-21.67
-22.08
-22.46
-22.3
-21.32
-19.46
-16.91
-14.02
-11.17
-8.62
-6.43
-4.44
-2.43
-0.22
2.11
4.31
6.06
7.24
8.02
8.75
9.85
11.42
13.2
14.61
14.97
13.86
11.34
8.02
4.76
2.45
1.67
2.52
4.76
7.91
11.38
14.66
17.29
18.9
19.25
18.31
16.4
14.14
12.3
11.63
12.53
14.95
18.3
21.63
23.94
24.51
23.22
20.55
17.41
14.71
13.02
12.35
12.26
12.17
11.65
10.65
9.34
7.99
6.7
5.39
3.91
2.13
0.16
-1.78
-3.44
-4.78
-5.96
-7.38
-9.54
-12.84
-17.45
-23.14
-29.33
-35.12
-39.53
-41.73
-41.26
-38.18
-33.06
-26.91
-20.9
-16.13
-13.45
-13.28
-15.55
-19.67
-24.54
-28.86
-31.43
-31.52
-29.12
-24.81
-19.63
-14.59
-10.33
-7.06
-4.66
-2.98
-2.02
-2.02
-3.25
-5.76
-9.32
-13.39
-17.46
-21.1
-24.12
-26.42
-27.88
-28.28
-27.45
-25.41
-22.53
-19.42
-16.73
-14.83
-13.67
-12.92
-12.14
-11.1
-9.81
-8.44
-7.1
-5.66
-3.77
-0.99
2.99
8.2
14.31
20.78
27.05
32.64
37.27
40.85
43.36
44.9
45.63
45.68
45.17
44.06
42.22
39.61
36.51
33.53
31.44
30.73
31.2
31.87
31.35
28.48
23.01
15.64
7.63
0.15
-6.27
-11.85
-17.19
-22.68
-28.22
-33.22
-36.96
-39.05
-39.6
-39.22
-38.67
-38.56
-39.12
-40.04
-40.75
-40.6
-39.26
-36.91
-34.22
-32.1
-31.29
-31.97
-33.53
-34.69
-33.93
-30.03
-22.61
-12.28
-0.54
10.77
20.03
26.25
29.26
29.57
28.06
25.65
23.09
20.83
18.99
17.45
15.96
14.3
12.43
10.55
8.99
8.01
7.66
7.69
7.78
7.73
7.54
7.38
7.38
7.41
7.14
6.13
4.18
1.34
-2.08
-5.79
-9.58
-13.43
-17.32
-21.05
-24.33
-26.85
-28.51
-29.49
-30.17
-30.9
-31.86
-33.02
-34.17
-35.07
-35.5
-35.24
-34.1
-31.92
-28.67
-24.55
-19.95
-15.42
-11.49
-8.51
-6.46
-5
-3.55
-1.47
1.62
5.72
10.39
14.94
18.67
21.2
22.49
22.86
22.72
22.43
22.18
21.93
21.55
20.85
19.73
18.15
16.19
13.96
11.51
8.9
6.19
3.54
1.22
-0.46
-1.36
-1.6
-1.55
-1.79
-2.79
-4.75
-7.59
-10.97
-14.46
-17.6
-19.99
-21.26
-21.06
-19.28
-16.06
-11.82
-7.23
-2.97
0.44
2.75
3.97
4.31
4.03
3.31
2.3
1.07
-0.26
-1.52
-2.51
-3.11
-3.4
-3.64
-4.15
-5.14
-6.63
-8.42
-10.2
-11.78
-13.13
-14.44
-15.98
-17.98
-20.56
-23.7
-27.13
-30.45
-33.24
-35.06
-35.81
-35.75
-35.6
-36.34
-38.8
-43.35
-49.73
-57.08
-64.19
-69.81
-73.1
-73.86
-72.62
-70.52
-68.92
-69
-71.4
-75.95
-81.7
-87.24
-91.05
-91.91
-89.33
-83.4
-75.12
-65.92
-56.92
-48.29
-39.13
-27.91
-13.34
4.98
26.67
50.11
73.22
94.42
113.01
128.99
142.39
152.92
160
163.87
164.63
162.64
158.91
154.86
151.87
150.8
151.94
155.16
160.87
167.9
174.12
177.18
175.38
168.27
156.89
143.63
125.93
105.74
87.01
73.6
66.42
63.75
63.14
62.64
60.87
57.19
51.84
44.06
32.19
15.4
-6.24
-32.22
-62.17
-96.1
-133.91
-167.26
-192.71
-209.66
-219.22
-223.14
-223.24
-221.28
-218.69
-215.67
-212.05
-208.29
-204.4
-200.04
-194.99
-189.38
-183.54
-181.68
-181.96
-183.58
-187.1
-192.21
-196.95
-198.03
-192
-177.32
-155.78
-131.89
-112.32
-102.87
-105.32
-117.06
-132.67
-146.45
-154.52
-155.37
-148.53
-135.49
-118.27
-98.61
-78.12
-58.57
-41.77
-29.05
-20.88
-16.43
-14.53
-13.71
-12.49
-9.88
-5.76
-0.65
4.4
8.42
10.98
12.01
12.09
12.13
12.91
14.77
17.53
20.64
23.44
25.5
26.72
27.49
28.53
30.59
34.19
39.42
45.93
53.06
60.1
66.57
72.45
78.14
84.32
91.58
100.23
110.09
120.62
131.17
141.21
150.68
159.86
169.41
180.16
192.99
208.72
227.69
249.32
271.7
291.7
305.63
310.55
305.3
291.03
270.71
247.92
225.51
204.85
185.92
168.09
150.98
134.88
120.52
108.5
98.75
90.51
82.63
74.2
64.9
55.12
45.64
37.19
30.08
24.12
18.74
13.36
7.58
1.23
-5.62
-12.81
-20.12
-27.21
-33.53
-38.35
-40.93
-40.73
-37.79
-32.77
-26.87
-21.48
-17.65
-15.85
-15.76
-16.58
-17.4
-17.57
-16.92
-15.66
-14.15
-12.61
-10.95
-8.85
-5.93
-2.11
2.17
5.98
8.24
8.18
5.75
1.78
-2.39
-5.47
-6.76
-6.4
-5.11
-3.73
-2.79
-2.24
-1.77
-1.13
-0.43
-0.22
-1.27
-4.24
-9.28
-15.99
-23.52
-30.87
-37.27
-42.34
-46.15
-48.87
-50.57
-50.95
-49.54
-46
-40.5
-33.81
-27.15
-21.69
-18.02
-16.01
-14.86
-13.57
-11.41
-8.22
-4.41
-0.62
2.67
5.46
8.2
11.54
15.94
21.34
27.23
32.7
36.89
39.09
38.89
36.13
30.83
23.26
13.94
3.79
-5.99
-14.09
-19.53
-21.99
-21.98
-20.77
-19.97
-21.05
-24.82
-31.26
-39.49
-48.1
-55.6
-60.78
-63
-62.29
-59.26
-54.86
-50.09
-45.66
-41.83
-38.33
-34.62
-30.13
-24.57
-18.07
-11.19
-4.74
0.51
4.06
5.82
6.18
5.81
5.54
6.01
7.48
9.74
12.24
14.37
15.76
16.34
16.25
15.69
14.65
12.92
10.25
6.52
1.97
-2.92
-7.51
-11.28
-14.02
-15.79
-16.94
-17.92
-19.28
-21.51
-24.97
-29.73
-35.37
-40.99
-45.31
-47.05
-45.31
-39.98
-31.69
-21.66
-11.29
-1.68
6.5
13.05
18.09
21.86
24.63
26.69
28.32
29.75
31.07
32.21
32.98
33.12
32.59
31.49
30.1
28.71
27.46
26.33
25.21
24.05
22.87
21.78
20.8
19.79
18.49
16.62
14.06
10.96
7.63
4.43
1.56
-0.95
-3.31
-5.74
-8.5
-11.73
-15.54
-19.93
-24.77
-29.73
-34.21
-37.43
-38.56
-37.06
-32.81
-26.28
-18.3
-9.84
-1.78
5.34
11.16
15.6
18.67
20.52
21.42
21.79
22.07
22.62
23.61
24.94
26.38
27.6
28.37
28.58
28.26
27.52
26.5
25.35
24.15
23.01
22
21.19
20.55
19.92
19.06
17.68
15.56
12.68
9.26
5.73
2.53
0.01
-1.77
-3.06
-4.38
-6.31
-9.28
-13.41
-18.36
-23.48
-27.89
-30.8
-31.67
-30.27
-26.77
-21.54
-15.18
-8.31
-1.53
4.79
10.49
15.7
20.6
25.27
29.58
33.2
35.88
37.69
39.18
41.08
43.99
47.97
52.44
56.38
58.82
59.16
57.36
53.67
48.44
41.88
34.03
24.89
14.59
3.43
-8.08
-19.35
-29.76
-38.81
-46.25
-52.19
-57.06
-61.47
-65.95
-70.59
-75.06
-78.65
-80.68
-80.74
-78.88
-75.48
-70.94
-65.51
-59.21
-51.96
-43.75
-34.76
-25.33
-15.86
-6.7
1.95
10
17.43
24.24
30.38
35.75
40.22
43.61
45.79
46.71
46.46
45.28
43.52
41.48
39.43
37.45
35.61
33.86
32.13
30.29
28.21
25.77
22.92
19.81
16.75
14.15
12.36
11.51
11.49
11.9
12.21
11.8
10.22
7.18
2.75
-2.69
-8.49
-13.9
-18.25
-21.02
-21.99
-21.14
-18.67
-14.94
-10.41
-5.66
-1.19
2.59
5.45
7.27
7.97
7.42
5.49
2.13
-2.55
-8.18
-14.23
-20.03
-24.93
-28.35
-29.86
-29.32
-26.91
-23.15
-18.82
-14.71
-11.49
-9.51
-8.86
-9.36
-10.69
-12.43
-14.13
-15.42
-16.11
-16.24
-16.13
-16.28
-17.19
-19.07
-21.62
-24.02
-25.15
-23.93
-19.79
-12.91
-4.2
5.03
13.48
20.21
24.82
27.35
28.02
27.13
24.92
21.68
17.79
13.7
9.85
6.47
3.44
0.38
-3.3
-8.08
-14.2
-21.58
-29.91
-38.8
-47.89
-56.91
-65.61
-73.82
-81.39
-88.2
-94.08
-98.6
-101.14
-100.99
-97.82
-92.07
-84.96
-78.2
-73.18
-70.35
-69.04
-67.75
-64.94
-59.66
-51.82
-42.08
-31.35
-20.39
-9.58
1
11.37
21.52
31.24
40.2
48.09
54.68
59.94
63.98
66.97
69.2
71.16
73.62
77.64
84.23
93.82
105.88
118.85
130.56
139.01
143.04
142.63
138.67
132.48
125.18
117.43
109.29
100.42
90.33
78.62
65.16
50.22
34.46
18.77
4.05
-9.04
-20.11
-29.01
-35.67
-39.97
-41.72
-40.8
-37.31
-31.73
-24.82
-17.5
-10.65
-5.01
-1.09
0.79
0.51
-1.87
-6.11
-11.87
-18.74
-26.37
-34.44
-42.76
-51.21
-59.71
-68.12
-76.1
-83.05
-88.1
-90.35
-89.28
-85.16
-79.07
-72.68
-67.63
-64.86
-64.21
-64.38
-63.28
-58.66
-48.79
-32.96
-11.64
13.51
40.02
65.21
86.69
102.94
113.45
118.73
119.91
118.3
115.02
110.7
105.62
99.73
92.93
85.21
76.65
67.37
57.5
47.18
36.6
26.05
15.92
6.59
-1.68
-8.88
-15.16
-20.74
-25.79
-30.28
-33.98
-36.59
-37.91
-37.96
-37.08
-35.81
-34.7
-34.12
-34.19
-34.74
-35.43
-35.93
-36.03
-35.7
-35.06
-34.36
-33.86
-33.83
-34.42
-35.66
-37.42
-39.38
-41.06
-41.84
-41.15
-38.57
-34.03
-27.84
-20.67
-13.33
-6.56
-0.83
3.75
7.26
9.93
11.88
13.19
13.84
13.84
13.3
12.44
11.51
10.72
10.15
9.76
9.45
9.11
8.69
8.2
7.7
7.25
6.83
6.41
5.83
4.93
3.58
1.7
-0.58
-3.04
-5.42
-7.51
-9.24
-10.73
-12.2
-13.95
-16.22
-19.13
-22.54
-26.06
-29
-30.58
-30.16
-27.46
-22.73
-16.64
-10.09
-3.96
1.2
5.18
8.08
10.14
11.56
12.42
12.72
12.45
11.65
10.51
9.29
8.25
7.55
7.18
7.01
6.82
6.42
5.74
4.86
3.98
3.3
2.91
2.77
2.65
2.28
1.47
0.22
-1.33
-2.92
-4.42
-5.87
-7.46
-9.41
-11.85
-14.75
-17.9
-21.02
-23.74
-25.68
-26.41
-25.56
-22.88
-18.46
-12.69
-6.26
0.12
5.84
10.54
14.09
16.46
17.67
17.75
16.77
14.98
12.74
10.5
8.66
7.4
6.71
6.39
6.2
5.94
5.58
5.15
4.73
4.35
3.97
3.41
2.55
1.29
-0.35
-2.26
-4.31
-6.4
-8.46
-10.48
-12.49
-14.6
-16.97
-19.85
-23.4
-27.54
-31.84
-35.49
-37.53
-37.16
-34.08
-28.59
-21.49
-13.83
-6.54
-0.22
4.88
8.85
11.9
14.24
16.01
17.26
18
18.23
18
17.39
16.55
15.62
14.7
13.86
13.11
12.41
11.76
11.22
10.85
10.72
10.75
10.71
10.28
9.21
7.38
4.94
2.22
-0.43
-2.8
-4.85
-6.72
-8.62
-10.73
-13.21
-16.2
-19.8
-24
-28.57
-32.97
-36.38
-37.99
-37.17
-33.77
-28.14
-21.08
-13.51
-6.25
0.15
5.49
9.81
13.27
16
18.08
19.53
20.35
20.57
20.3
19.62
18.65
17.47
16.17
14.87
13.77
13.03
12.76
12.93
13.35
13.68
13.64
13.04
11.86
10.3
8.56
6.81
5.08
3.27
1.25
-1.06
-3.63
-6.31
-8.92
-11.36
-13.67
-16.04
-18.74
-21.95
-25.68
-29.66
-33.33
-35.98
-36.87
-35.48
-31.65
-25.7
-18.32
-10.43
-2.9
3.66
9.01
13.22
16.54
19.17
21.17
22.51
23.13
23.07
22.46
21.51
20.41
19.32
18.32
17.45
16.73
16.18
15.76
15.4
15.01
14.52
13.89
13.13
12.24
11.19
9.89
8.27
6.23
3.77
0.93
-2.16
-5.34
-8.44
-11.34
-14.02
-16.57
-19.13
-21.91
-25.01
-28.41
-31.79
-34.59
-36.08
-35.63
-32.87
-27.88
-21.16
-13.48
-5.66
1.57
7.75
12.64
16.18
18.45
19.58
19.77
19.22
18.08
16.54
14.78
13
11.43
10.24
9.53
9.25
9.29
9.47
9.66
9.82
9.88
9.78
9.41
8.61
7.22
5.21
2.68
-0.16
-3.03
-5.74
-8.18
-10.42
-12.64
-15.07
-17.89
-21.18
-24.94
-29.02
-33.15
-36.89
-39.7
-40.92
-40.03
-36.75
-31.21
-23.97
-15.89
-7.89
-0.68
5.32
10
13.51
16.03
17.68
18.49
18.42
17.46
15.72
13.46
10.96
8.45
5.98
3.46
0.91
-1.42
-2.97
-3.05
-1.2
2.57
7.78
13.69
19.65
25.19
29.95
33.42
34.94
33.88
30.12
24.28
17.63
11.57
6.88
3.41
0.18
-4.1
-10.27
-18.43
-27.82
-37.25
-45.54
-51.98
-56.35
-58.85
-59.7
-58.91
-56.19
-51.17
-43.74
-34.43
-24.44
-15.42
-8.84
-5.61
-5.68
-8.16
-11.54
-14.02
-13.84
-9.66
-0.87
12.13
27.79
43.78
57.49
66.87
70.86
69.65
64.44
56.96
48.95
41.7
35.88
31.56
28.4
25.9
23.59
21.1
18.13
14.37
9.57
3.57
-3.43
-10.91
-18.09
-24.29
-29.18
-32.84
-35.59
-37.48
-38.08
-36.47
-31.73
-23.49
-12.44
-0.23
10.95
19.12
23.11
22.88
19.35
13.97
8.21
3.22
-0.29
-2.12
-2.33
-1.22
0.75
3.11
5.36
7.2
8.51
9.42
10.21
11.09
12.02
12.6
12.18
10.07
5.81
-0.47
-7.95
-15.21
-20.57
-22.65
-20.76
-15.14
-6.86
2.64
11.86
19.59
24.87
27
25.52
20.36
12.11
2.05
-8
-16.22
-21.29
-22.69
-20.77
-16.45
-10.91
-5.18
-0.01
4.32
7.85
10.83
13.42
15.6
17.07
17.49
16.71
14.96
12.77
10.79
9.47
8.83
8.52
8.03
6.92
5.11
2.85
0.62
-1.04
-1.81
-1.75
-1.26
-1.04
-1.91
-4.52
-9.18
-15.61
-22.94
-29.84
-34.83
-36.74
-35.12
-30.47
-24.09
-17.68
-12.87
-10.69
-11.36
-14.32
-18.43
-22.38
-25.09
-25.93
-24.78
-21.97
-17.99
-13.22
-7.83
-1.86
4.66
11.48
18.09
23.87
28.29
31.17
32.69
33.25
33.17
32.51
30.95
27.98
23.24
16.83
9.47
2.27
-3.52
-7.03
-8
-6.75
-3.96
-0.44
3.12
6.16
8.17
8.81
7.93
5.8
3.17
1.03
0.18
0.87
2.52
3.93
3.75
1.09
-4.28
-11.86
-20.73
-29.84
-38.12
-44.4
-47.45
-46.11
-39.75
-28.68
-14.37
0.77
14.02
23.09
26.89
25.68
20.95
14.78
9.2
5.63
4.64
5.95
8.72
11.94
14.8
16.85
18.06
18.71
19.23
19.96
21.05
22.47
23.98
25.3
26.11
26.16
25.2
23.07
19.69
15.1
9.49
3.07
-3.94
-11.33
-18.74
-25.55
-30.89
-33.75
-33.39
-29.64
-23.2
-15.58
-8.74
-4.55
-4.2
-7.8
-14.3
-21.87
-28.55
-32.88
-34.39
-33.48
-31.01
-27.63
-23.38
-17.73
-10.12
-0.54
10.18
20.54
28.96
34.45
36.85
36.79
35.2
32.93
30.47
28.07
25.88
24.16
23.18
23.07
23.67
24.54
25.12
25.01
24.09
22.49
20.44
18.07
15.29
11.87
7.56
2.26
-3.88
-10.5
-17.14
-23.36
-28.86
-33.33
-36.58
-38.44
-38.86
-38.02
-36.3
-34.24
-32.38
-31.06
-30.27
-29.71
-28.89
-27.3
-24.63
-20.73
-15.69
-9.71
-3.08
3.87
10.76
17.16
22.67
26.94
29.75
31
30.71
28.97
26.08
22.42
18.52
14.9
11.92
9.67
7.99
6.59
5.25
3.97
2.97
2.6
3.08
4.32
5.91
7.19
7.52
6.48
4.1
0.8
-2.77
-5.95
-8.4
-10.14
-11.59
-13.37
-16.14
-20.45
-26.58
-34.37
-43.05
-51.19
-56.83
-57.98
-53.28
-42.48
-26.73
-8.26
10.27
26.47
38.79
46.58
49.94
49.37
45.51
39.05
30.76
21.44
11.93
3.08
-4.27
-9.35
-11.57
-10.68
-6.88
-0.76
6.81
14.96
22.96
30.09
35.59
38.5
37.87
33.17
24.81
14.12
2.98
-7.01
-15.07
-21.24
-25.9
-29.04
-30.09
-28.18
-22.93
-15.01
-6.11
1.66
6.64
8.16
6.57
2.9
-1.67
-6.07
-9.47
-11.31
-11.45
-10.17
-8.27
-6.74
-6.28
-7.01
-8.31
-9.22
-8.75
-6.44
-2.38
2.91
8.75
14.57
19.88
24.29
27.31
28.45
27.32
23.88
18.65
12.64
7.18
3.45
2.12
3.09
5.68
8.85
11.54
13.04
12.98
11.42
8.72
5.51
2.62
0.77
0.32
1.1
2.38
3.27
3.05
1.47
-1.17
-4.49
-8.24
-12.59
-17.93
-24.51
-32.06
-39.71
-46.17
-50.1
-50.54
-47.25
-40.73
-32.09
-22.71
-13.86
-6.4
-0.62
3.7
7.01
9.71
12.01
13.88
15.13
15.63
15.34
14.41
13.14
11.87
10.95
10.64
11.03
12.09
13.62
15.32
16.77
17.55
17.26
15.68
12.87
9.21
5.33
1.87
-0.79
-2.71
-4.36
-6.45
-9.55
-13.91
-19.35
-25.35
-31.27
-36.56
-40.8
-43.74
-45.28
-45.46
-44.49
-42.74
-40.62
-38.46
-36.41
-34.37
-32.13
-29.52
-26.48
-23.02
-19.05
-14.2
-7.73
1.22
13.18
27.82
43.71
58.69
70.6
78.21
81.77
82.72
82.87
83.35
83.99
83.6
80.84
75.04
66.65
56.86
46.89
37.36
28.12
18.64
8.51
-2.16
-12.69
-22.17
-29.76
-34.92
-37.41
-37.27
-34.64
-29.91
-23.7
-17.1
-11.56
-8.76
-10.08
-16.04
-26.02
-38.26
-50.4
-60.18
-66.13
-67.82
-65.68
-60.48
-52.92
-43.41
-32.25
-19.91
-7.31
4.24
13.42
19.28
21.6
20.9
18.14
14.43
10.63
7.21
4.31
1.92
0.05
-1.23
-1.79
-1.54
-0.64
0.5
1.31
1.28
0.25
-1.4
-2.8
-2.99
-1.39
1.92
6.11
10.06
12.83
14.03
13.79
12.42
10.02
6.37
1.11
-5.86
-13.96
-21.84
-27.73
-30.05
-28.08
-22.22
-13.74
-4.17
5.35
14.4
23.14
31.72
39.9
46.74
51.01
51.64
48.21
41.11
31.41
20.5
9.76
0.38
-6.74
-10.97
-12.03
-10.02
-5.35
1.3
8.99
16.49
22.39
25.3
24.33
19.48
11.82
3.26
-4.16
-8.91
-10.54
-9.68
-7.67
-5.92
-5.43
-6.49
-8.85
-12.08
-15.91
-20.39
-25.67
-31.57
-37.24
-41.2
-41.89
-38.49
-31.54
-22.95
-15.2
-10.29
-8.76
-9.51
-10.52
-9.89
-6.8
-1.79
3.69
8.2
10.99
12.29
12.97
14
15.87
18.39
20.79
22.15
21.81
19.44
15.13
9.2
2.41
-3.98
-8.17
-8.18
-2.68
8.21
22.51
36.85
47.61
52.27
50.26
42.91
32.62
21.75
11.98
4.04
-1.93
-6.06
-8.56
-9.83
-10.51
-11.44
-13.41
-16.88
-21.74
-27.29
-32.44
-35.95
-36.88
-34.78
-29.94
-23.25
-15.93
-9.12
-3.51
0.8
4.18
7.15
10.03
12.82
15.16
16.62
16.89
16.02
14.38
12.44
10.64
9.12
7.79
6.36
4.6
2.49
0.22
-1.87
-3.47
-4.47
-4.96
-5.18
-5.45
-6.03
-7.05
-8.48
-10.09
-11.62
-12.81
-13.62
-14.24
-15.05
-16.47
-18.84
-22.31
-26.79
-31.95
-37.18
-41.65
-44.38
-44.51
-41.5
-35.43
-26.93
-17.13
-7.24
1.74
9.22
15.07
19.45
22.65
24.91
26.34
27.01
26.95
26.31
25.25
23.94
22.45
20.75
18.71
16.26
13.45
10.53
7.87
5.82
4.54
4
3.9
3.92
3.74
3.23
2.38
1.26
-0.06
-1.55
-3.26
-5.25
-7.55
-10.15
-13.02
-16.15
-19.57
-23.34
-27.41
-31.45
-34.86
-36.84
-36.69
-34.01
-29.01
-22.39
-15.18
-8.34
-2.47
2.29
6.16
9.47
12.4
14.93
16.79
17.77
17.78
17.03
15.88
14.74
13.92
13.48
13.31
13.19
12.97
12.65
12.33
12.17
12.18
12.24
12.08
11.39
9.98
7.82
5.05
1.87
-1.5
-4.9
-8.2
-11.33
-14.26
-17.01
-19.7
-22.58
-25.96
-30.03
-34.83
-39.97
-44.75
-48.19
-49.38
-47.73
-43.22
-36.38
-28.16
-19.58
-11.51
-4.43
1.61
6.82
11.57
16.18
20.8
25.35
29.57
33.13
35.73
37.21
37.55
36.85
35.38
33.61
32.17
31.77
33.04
36.2
40.95
46.49
51.83
56.14
58.95
60.25
60.22
59.07
56.96
53.99
50.43
46.66
43.08
39.82
36.53
32.5
26.97
19.69
11.25
3.1
-2.99
-5.51
-3.93
1.14
8.14
15.22
20.84
24.23
25.41
24.91
23.38
21.33
19.09
16.76
14.27
11.29
7.17
1.06
-7.69
-19.03
-31.96
-44.58
-54.69
-60.56
-61.55
-58.25
-52.07
-44.7
-37.47
-31.22
-26.32
-22.92
-21.03
-20.56
-21.28
-22.79
-24.68
-26.72
-28.93
-31.61
-35.03
-39.14
-43.32
-46.46
-47.19
-44.42
-37.73
-27.58
-15.2
-2.18
9.89
19.89
27.21
31.77
33.9
34.12
33.06
31.26
29.18
27.01
24.87
22.74
20.67
18.75
17.14
16.02
15.49
15.57
16.12
16.84
17.28
16.92
15.3
12.21
7.79
2.55
-2.85
-7.81
-12.04
-15.58
-18.7
-21.8
-25.22
-29.13
-33.52
-38.11
-42.34
-45.41
-46.51
-45.04
-40.86
-34.38
-26.47
-18.18
-10.47
-3.92
1.24
5.1
7.88
9.79
11.03
11.77
12.22
12.61
13.11
13.78
14.51
15.11
15.37
15.2
14.62
13.78
12.77
11.6
10.18
8.4
6.18
3.56
0.78
-1.91
-4.24
-6.08
-7.52
-8.86
-10.55
-13.04
-16.55
-20.94
-25.69
-29.96
-32.88
-33.71
-32.06
-27.9
-21.58
-13.69
-5.02
3.6
11.37
17.67
22.1
24.52
25.06
24.04
21.93
19.28
16.66
14.52
13.15
12.59
12.76
13.42
14.28
15.08
15.58
15.66
15.3
14.59
13.66
12.56
11.21
9.38
6.87
3.66
0.01
-3.67
-7
-9.88
-12.51
-15.33
-18.75
-22.95
-27.76
-32.8
-37.43
-41.03
-42.97
-42.77
-40.21
-35.41
-28.87
-21.32
-13.55
-6.19
0.4
6.12
11.06
15.37
19.17
22.45
25.15
27.18
28.42
28.83
28.43
27.28
25.53
23.37
21.03
18.85
17.21
16.43
16.67
17.76
19.25
20.51
21.04
20.64
19.38
17.61
15.6
13.51
11.32
8.92
6.28
3.46
0.59
-2.23
-4.9
-7.38
-9.63
-11.66
-13.53
-15.43
-17.69
-20.61
-24.3
-28.5
-32.56
-35.59
-36.76
-35.55
-31.98
-26.5
-19.94
-13.13
-6.78
-1.35
3.02
6.32
8.68
10.25
11.17
11.6
11.73
11.73
11.71
11.73
11.73
11.6
11.29
10.85
10.48
10.38
10.7
11.43
12.34
13.12
13.43
13.1
12.07
10.45
8.37
5.99
3.39
0.64
-2.18
-4.96
-7.57
-9.89
-11.85
-13.5
-15.03
-16.71
-18.78
-21.38
-24.42
-27.53
-30.16
-31.65
-31.4
-29.1
-24.8
-18.95
-12.29
-5.67
0.22
4.98
8.5
10.92
12.45
13.26
13.49
13.24
12.67
11.97
11.38
11.05
11.04
11.27
11.58
11.86
12.02
12.07
12.02
11.83
11.43
10.72
9.68
8.34
6.84
5.33
3.92
2.64
1.41
0.1
-1.36
-2.99
-4.69
-6.33
-7.77
-9.02
-10.19
-11.49
-13.19
-15.45
-18.36
-21.78
-25.35
-28.52
-30.62
-31.03
-29.35
-25.59
-20.16
-13.79
-7.27
-1.23
3.96
8.22
11.57
14.08
15.82
16.84
17.26
17.24
16.98
16.64
16.32
16.1
15.95
15.81
15.59
15.18
14.56
13.75
12.89
12.14
11.56
11.11
10.67
10.07
9.26
8.25
7.13
5.99
4.82
3.54
2.01
0.14
-2.08
-4.56
-7.15
-9.67
-12
-14.09
-15.98
-17.81
-19.75
-21.96
-24.54
-27.46
-30.46
-33.09
-34.78
-34.92
-33.17
-29.5
-24.27
-18.13
-11.8
-5.87
-0.7
3.53
6.84
9.25
10.86
11.8
12.28
12.53
12.75
13.04
13.38
13.68
13.86
13.91
13.87
13.82
13.83
13.9
14.03
14.2
14.36
14.46
14.38
14
13.24
12.11
10.72
9.2
7.69
6.24
4.83
3.36
1.76
0.01
-1.84
-3.75
-5.64
-7.48
-9.23
-10.92
-12.52
-14.07
-15.62
-17.25
-19.1
-21.27
-23.73
-26.23
-28.31
-29.35
-28.83
-26.5
-22.42
-17.06
-11.05
-5.01
0.56
5.39
9.34
12.39
14.52
15.74
16.12
15.85
15.15
14.28
13.39
12.56
11.82
11.16
10.6
10.14
9.8
9.55
9.35
9.16
8.98
8.79
8.55
8.21
7.7
7.01
6.13
5.11
3.95
2.64
1.12
-0.65
-2.63
-4.67
-6.59
-8.25
-9.63
-10.82
-11.97
-13.27
-14.8
-16.61
-18.62
-20.67
-22.44
-23.48
-23.33
-21.66
-18.43
-14.03
-9.11
-4.4
-0.43
2.62
4.88
6.62
8.02
9.09
9.73
9.85
9.45
8.68
7.73
6.71
5.71
4.74
3.85
3.11
2.62
2.43
2.54
2.9
3.39
3.87
4.25
4.47
4.54
4.5
4.4
4.27
4.09
3.78
3.23
2.34
1.08
-0.49
-2.27
-4.12
-5.97
-7.79
-9.66
-11.68
-13.98
-16.63
-19.55
-22.54
-25.15
-26.84
-27.05
-25.42
-21.91
-16.89
-11
-4.94
0.69
5.52
9.47
12.58
14.91
16.49
17.27
17.23
16.45
15.11
13.5
11.89
10.49
9.37
8.53
7.92
7.52
7.37
7.51
7.95
8.64
9.42
10.09
10.48
10.44
9.91
8.88
7.39
5.53
3.47
1.37
-0.67
-2.57
-4.36
-6.1
-7.84
-9.61
-11.37
-13.07
-14.66
-16.16
-17.66
-19.3
-21.17
-23.3
-25.52
-27.51
-28.83
-28.98
-27.56
-24.42
-19.69
-13.83
-7.45
-1.18
4.52
9.44
13.53
16.9
19.61
21.68
23.09
23.85
24.04
23.78
23.2
22.4
21.44
20.39
19.32
18.3
17.36
16.51
15.74
15.06
14.51
14.07
13.65
13.1
12.23
10.96
9.33
7.56
5.88
4.46
3.32
2.28
1.06
-0.61
-2.82
-5.51
-8.38
-11.07
-13.28
-14.86
-15.94
-16.79
-17.78
-19.17
-21.04
-23.24
-25.44
-27.18
-27.98
-27.45
-25.36
-21.75
-16.91
-11.39
-5.84
-0.8
3.35
6.51
8.79
10.4
11.51
12.15
12.25
11.72
10.56
8.94
7.17
5.6
4.44
3.77
3.47
3.41
3.45
3.53
3.65
3.8
3.96
4.08
4.11
3.98
3.61
2.94
1.9
0.53
-1.1
-2.87
-4.68
-6.47
-8.27
-10.06
-11.86
-13.68
-15.6
-17.77
-20.4
-23.62
-27.32
-31.09
-34.18
-35.83
-35.39
-32.7
-28.04
-22.09
-15.65
-9.4
-3.78
1.06
5.08
8.35
10.87
12.63
13.63
13.95
13.76
13.32
12.9
12.65
12.63
12.71
12.75
12.64
12.35
11.93
11.45
10.94
10.3
9.41
8.14
6.46
4.42
2.13
-0.28
-2.72
-5.16
-7.66
-10.28
-13.07
-15.96
-18.78
-21.28
-23.24
-24.61
-25.59
-26.64
-28.32
-31.02
-34.68
-38.69
-41.96
-43.3
-41.86
-37.52
-30.96
-23.44
-16.32
-10.65
-6.91
-5.1
-4.87
-5.68
-6.8
-7.29
-6.01
-1.95
5.43
15.85
28.15
40.7
51.93
60.91
67.52
72.19
75.46
77.47
77.92
76.28
72.25
66.15
58.86
51.43
44.57
38.41
32.51
26.34
19.72
13.07
7.12
2.52
-0.62
-2.79
-4.79
-7.27
-10.29
-13.34
-15.61
-16.5
-15.98
-14.69
-13.65
-13.82
-15.64
-18.83
-22.52
-25.62
-27.23
-27.05
-25.28
-22.56
-19.55
-16.7
-14.15
-11.78
-9.35
-6.64
-3.53
-0.01
3.88
8.09
12.58
17.26
21.9
26.05
29.2
30.84
30.8
29.35
27.14
24.94
23.29
22.28
21.5
20.36
18.36
15.32
11.46
7.22
3.05
-0.76
-4.09
-6.93
-9.33
-11.36
-13.1
-14.66
-16.22
-17.96
-20.01
-22.33
-24.85
-27.4
-29.88
-32.29
-34.68
-37.16
-39.71
-42.15
-44.11
-45.04
-44.42
-41.93
-37.62
-31.94
-25.58
-19.24
-13.43
-8.38
-4.15
-0.72
1.9
3.73
4.85
5.46
5.8
6.13
6.52
6.97
7.36
7.7
8.03
8.46
9.04
9.74
10.43
10.93
11.14
11.01
10.6
10.03
9.37
8.62
7.63
6.2
4.12
1.3
-2.14
-5.91
-9.63
-12.99
-15.84
-18.26
-20.51
-22.87
-25.56
-28.61
-31.87
-35.06
-37.84
-39.89
-40.94
-40.74
-39.2
-36.34
-32.38
-27.69
-22.61
-17.32
-11.7
-5.45
1.75
9.97
18.85
27.62
35.25
40.81
43.69
43.84
41.77
38.36
34.61
31.34
29.06
27.85
27.5
27.59
27.65
27.2
25.94
23.71
20.57
16.84
12.93
9.26
6.02
3.02
-0.32
-4.66
-10.47
-17.58
-24.98
-30.89
-33.24
-30.33
-21.52
-7.63
9.18
25.94
39.82
48.75
51.98
50
44.1
35.91
26.89
18.18
10.57
4.53
0.26
-2.39
-3.9
-4.98
-6.24
-7.95
-9.85
-11.28
-11.53
-10.17
-7.34
-3.61
0.24
3.56
6.03
7.65
8.66
9.41
10.24
11.42
13.08
15.2
17.52
19.67
21.23
21.94
21.8
21.06
20.09
19.19
18.39
17.48
16.1
13.91
10.82
6.99
2.71
-1.75
-6.29
-11.05
-16.24
-22.06
-28.49
-35.35
-42.32
-49.06
-55.13
-60.07
-63.3
-64.24
-62.46
-57.8
-50.44
-40.79
-29.35
-16.56
-2.78
11.62
26.11
40.02
52.46
62.61
69.73
73.39
73.42
69.9
63.09
53.45
41.62
28.54
15.48
3.9
-4.78
-9.57
-10.25
-7.44
-2.45
3.09
7.72
10.47
10.98
9.39
6.18
1.94
-2.69
-7.14
-10.91
-13.69
-15.37
-16.1
-16.26
-16.29
-16.62
-17.51
-19.14
-21.51
-24.62
-28.41
-32.78
-37.52
-42.19
-46.11
-48.42
-48.31
-45.24
-39.2
-30.72
-20.81
-10.57
-1.01
7.24
13.86
18.84
22.3
24.41
25.39
25.53
25.1
24.4
23.61
22.81
21.99
21.14
20.29
19.57
19.1
18.94
19.03
19.16
19.02
18.39
17.11
15.23
12.91
10.37
7.85
5.49
3.36
1.38
-0.56
-2.59
-4.78
-7.16
-9.66
-12.19
-14.73
-17.31
-20.1
-23.26
-26.9
-30.9
-34.9
-38.24
-40.13
-39.89
-37.18
-32.1
-25.23
-17.43
-9.59
-2.4
3.7
8.6
12.33
15.02
16.85
17.97
18.53
18.67
18.49
18.1
17.63
17.25
17.13
17.34
17.9
18.71
19.64
20.58
21.39
21.94
22.09
21.72
20.7
18.99
16.64
13.75
10.43
6.83
3.08
-0.73
-4.57
-8.44
-12.38
-16.37
-20.36
-24.19
-27.76
-31.09
-34.39
-37.97
-42.07
-46.61
-51.11
-54.72
-56.48
-55.6
-51.74
-45.13
-36.48
-26.73
-16.84
-7.5
0.88
8.14
14.26
19.22
23
25.6
27.1
27.71
27.75
27.53
27.3
27.18
27.2
27.29
27.39
27.51
27.7
28.02
28.5
29.03
29.45
29.49
28.92
27.66
25.77
23.44
20.93
18.41
15.9
13.31
10.45
7.21
3.62
-0.14
-3.85
-7.32
-10.54
-13.67
-16.96
-20.73
-25.19
-30.41
-36.24
-42.23
-47.62
-51.45
-52.75
-50.83
-45.49
-37.2
-26.97
-16.04
-5.59
3.63
11.32
17.54
22.54
26.55
29.66
31.84
33.04
33.27
32.62
31.32
29.65
27.88
26.27
24.99
24.14
23.71
23.62
23.73
23.84
23.72
23.13
21.83
19.72
16.89
13.59
10.26
7.26
4.81
2.89
1.25
-0.46
-2.49
-4.98
-7.88
-11.05
-14.31
-17.46
-20.37
-23.02
-25.55
-28.29
-31.62
-35.84
-40.88
-46.23
-50.97
-53.96
-54.22
-51.19
-44.87
-35.86
-25.2
-14.05
-3.52
5.6
12.88
18.26
21.93
24.21
25.4
25.75
25.49
24.79
23.88
22.96
22.19
21.69
21.48
21.53
21.74
22.05
22.38
22.69
22.9
22.89
22.54
21.68
20.21
18.06
15.3
12.07
8.57
4.97
1.36
-2.24
-5.85
-9.46
-13.03
-16.5
-19.86
-23.17
-26.61
-30.46
-34.86
-39.74
-44.62
-48.62
-50.68
-49.8
-45.49
-37.88
-27.85
-16.64
-5.57
4.43
12.93
19.87
25.43
29.74
32.89
34.87
35.79
35.83
35.29
34.46
33.56
32.65
31.7
30.67
29.49
28.24
27.05
26.07
25.39
24.95
24.52
23.79
22.51
20.56
18.07
15.29
12.54
10.03
7.82
5.76
3.58
1.05
-1.89
-5.14
-8.49
-11.72
-14.75
-17.65
-20.62
-23.91
-27.7
-32.09
-36.98
-42.09
-46.8
-50.23
-51.35
-49.35
-43.93
-35.48
-25.04
-13.89
-3.22
6.21
14.05
20.25
24.93
28.21
30.19
30.99
30.78
29.82
28.4
26.82
25.34
24.1
23.14
22.43
21.96
21.71
21.74
22.07
22.64
23.25
23.61
23.48
22.71
21.35
19.59
17.62
15.63
13.68
11.69
9.49
6.85
3.59
-0.3
-4.63
-9.02
-13.03
-16.38
-19.03
-21.22
-23.39
-25.99
-29.37
-33.64
-38.69
-44.04
-48.94
-52.41
-53.42
-51.27
-45.78
-37.44
-27.31
-16.68
-6.69
1.91
8.84
14.15
18.03
20.72
22.42
23.27
23.4
22.89
21.8
20.22
18.27
16.16
14.16
12.53
11.44
10.96
11.05
11.55
12.26
12.91
13.22
12.94
11.96
10.36
8.34
6.21
4.19
2.36
0.65
-1.1
-3.04
-5.27
-7.76
-10.42
-13.14
-15.89
-18.72
-21.8
-25.28
-29.28
-33.72
-38.3
-42.52
-45.63
-46.89
-45.66
-41.6
-34.81
-25.83
-15.5
-4.83
5.29
14.15
21.36
26.77
30.43
32.54
33.37
33.19
32.24
30.75
28.95
27.09
25.47
24.31
23.74
23.71
24.06
24.62
25.28
25.92
26.39
26.39
25.57
23.67
20.68
16.93
13
9.42
6.49
4.08
1.78
-0.92
-4.41
-8.72
-13.52
-18.26
-22.35
-25.35
-27.15
-28.11
-28.86
-30.23
-32.83
-36.87
-41.92
-46.96
-50.63
-51.67
-49.37
-43.72
-35.47
-25.84
-16.04
-7.09
0.49
6.53
11.16
14.64
17.22
19.16
20.65
21.83
22.72
23.25
23.31
22.84
21.88
20.61
19.3
18.22
17.59
17.47
17.87
18.67
19.75
20.89
21.8
22.21
21.9
20.82
19.16
17.22
15.27
13.42
11.54
9.36
6.64
3.31
-0.45
-4.32
-7.97
-11.22
-14.06
-16.65
-19.29
-22.27
-25.81
-29.94
-34.42
-38.73
-42.12
-43.75
-42.9
-39.21
-32.81
-24.35
-14.84
-5.35
3.23
10.42
16.1
20.44
23.68
26.01
27.52
28.3
28.5
28.29
27.88
27.37
26.71
25.81
24.57
23.05
21.43
19.99
18.98
18.51
18.5
18.73
18.92
18.78
18.17
17.02
15.43
13.55
11.56
9.57
7.58
5.5
3.2
0.57
-2.39
-5.54
-8.75
-11.85
-14.76
-17.48
-20.05
-22.55
-25.12
-27.94
-31.18
-34.88
-38.77
-42.28
-44.54
-44.65
-42
-36.46
-28.55
-19.21
-9.59
-0.74
6.68
12.43
16.61
19.51
21.42
22.51
22.84
22.4
21.25
19.54
17.54
15.55
13.85
12.62
11.92
11.73
11.92
12.36
12.88
13.32
13.53
13.4
12.86
11.89
10.57
8.96
7.12
5.07
2.74
0.09
-2.9
-6.12
-9.37
-12.43
-15.16
-17.59
-19.91
-22.42
-25.42
-29.07
-33.29
-37.7
-41.64
-44.3
-44.86
-42.76
-37.86
-30.58
-21.78
-12.56
-3.91
3.49
9.44
14.11
17.82
20.81
23.14
24.74
25.48
25.39
24.67
23.59
22.41
21.26
20.19
19.18
18.29
17.67
17.46
17.69
18.23
18.76
18.88
18.28
16.81
14.6
11.94
9.2
6.67
4.46
2.51
0.55
-1.69
-4.42
-7.64
-11.23
-14.86
-18.22
-21.08
-23.42
-25.41
-27.35
-29.66
-32.56
-36.08
-39.81
-43.01
-44.73
-44.1
-40.57
-34.17
-25.51
-15.68
-5.88
2.83
9.85
15.03
18.63
21.04
22.63
23.66
24.2
24.3
23.97
23.29
22.42
21.53
20.76
20.14
19.63
19.17
18.76
18.46
18.38
18.6
19.07
19.51
19.54
18.85
17.29
15.07
12.55
10.14
8.07
6.3
4.57
2.56
0.11
-2.8
-5.95
-9.04
-11.85
-14.29
-16.45
-18.53
-20.76
-23.35
-26.47
-30.12
-34.18
-38.26
-41.77
-43.96
-44.11
-41.69
-36.61
-29.23
-20.36
-11.08
-2.42
4.88
10.48
14.48
17.2
19.03
20.27
21.07
21.46
21.5
21.24
20.79
20.23
19.62
18.98
18.35
17.82
17.49
17.43
17.63
17.98
18.29
18.35
17.94
16.94
15.34
13.28
11.04
8.9
7.07
5.52
4.06
2.39
0.3
-2.23
-5.06
-7.93
-10.58
-12.85
-14.74
-16.42
-18.12
-20.17
-22.82
-26.2
-30.18
-34.32
-37.91
-40.09
-40.11
-37.54
-32.45
-25.4
-17.28
-9.09
-1.64
4.53
9.26
12.62
14.87
16.25
17
17.24
17
16.32
15.26
13.96
12.62
11.5
10.79
10.54
10.68
10.97
11.2
11.19
10.9
10.36
9.66
8.86
7.97
6.92
5.61
3.94
1.9
-0.46
-2.96
-5.43
-7.68
-9.68
-11.47
-13.21
-15.12
-17.4
-20.25
-23.72
-27.7
-31.85
-35.59
-38.15
-38.75
-36.84
-32.29
-25.52
-17.33
-8.73
-0.66
6.21
11.56
15.41
17.95
19.52
20.39
20.73
20.64
20.15
19.27
18.08
16.74
15.41
14.29
13.47
13
12.84
12.91
13.08
13.19
13.05
12.54
11.62
10.29
8.65
6.81
4.88
2.86
0.77
-1.44
-3.79
-6.26
-8.81
-11.37
-13.87
-16.26
-18.58
-20.96
-23.62
-26.79
-30.57
-34.83
-39.02
-42.3
-43.74
-42.57
-38.58
-32.14
-24.14
-15.63
-7.51
-0.26
5.95
11.1
15.23
18.29
20.31
21.39
21.75
21.68
21.35
20.83
20.14
19.3
18.42
17.66
17.16
16.99
17.09
17.35
17.63
17.78
17.73
17.37
16.67
15.6
14.21
12.6
10.79
8.79
6.49
3.82
0.78
-2.5
-5.8
-8.9
-11.61
-13.94
-15.99
-18.01
-20.32
-23.19
-26.81
-31.04
-35.45
-39.25
-41.5
-41.35
-38.4
-32.8
-25.25
-16.76
-8.33
-0.7
5.73
10.9
14.91
17.95
20.2
21.8
22.81
23.26
23.17
22.57
21.58
20.36
19.11
17.98
17.11
16.53
16.2
16.07
16.05
16.07
15.96
15.61
14.84
13.59
11.91
9.96
7.98
6.12
4.42
2.76
0.93
-1.22
-3.69
-6.34
-8.97
-11.4
-13.66
-15.85
-18.23
-21.02
-24.37
-28.27
-32.48
-36.49
-39.56
-40.9
-39.87
-36.24
-30.3
-22.79
-14.68
-6.85
0.05
5.7
10.05
13.25
15.47
16.89
17.64
17.8
17.43
16.55
15.21
13.48
11.39
9.06
6.57
4.09
1.82
-0.01
-1.3
-2.05
-2.41
-2.59
-2.74
-2.89
-2.96
-2.84
-2.47
-1.95
-1.46
-1.24
-1.48
-2.26
-3.51
-4.99
-6.41
-7.51
-8.21
-8.64
-9.16
-10.18
-12.01
-14.61
-17.6
-20.26
-21.8
-21.56
-19.19
-14.75
-8.69
-1.7
5.45
12.06
17.66
22.05
25.21
27.24
28.31
28.56
28.15
27.26
26.05
24.69
23.29
21.88
20.49
19.17
18
17.07
16.43
16.05
15.82
15.58
15.21
14.61
13.75
12.63
11.27
9.69
7.91
5.94
3.79
1.51
-0.88
-3.33
-5.81
-8.28
-10.69
-12.97
-15.07
-16.96
-18.77
-20.72
-23.12
-26.12
-29.54
-32.81
-35.05
-35.36
-33.17
-28.44
-21.71
-13.9
-6.01
1.17
7.23
12.11
15.96
18.96
21.18
22.61
23.25
23.2
22.73
22.12
21.57
21.13
20.64
19.97
19.11
18.17
17.36
16.82
16.51
16.28
15.89
15.22
14.23
13
11.66
10.28
8.88
7.42
5.84
4.05
1.99
-0.37
-2.92
-5.49
-7.85
-9.85
-11.43
-12.68
-13.79
-15.04
-16.66
-18.79
-21.47
-24.49
-27.45
-29.72
-30.64
-29.61
-26.39
-21.19
-14.63
-7.61
-0.97
4.66
9.04
12.25
14.52
16.09
17.09
17.56
17.48
16.88
15.82
14.45
12.95
11.51
10.31
9.43
8.95
8.82
8.96
9.24
9.56
9.83
10
10.03
9.89
9.56
8.99
8.2
7.27
6.28
5.36
4.53
3.7
2.71
1.36
-0.52
-2.98
-5.96
-9.38
-13.11
-17.02
-20.84
-24.22
-26.6
-27.45
-26.33
-23.19
-18.35
-12.5
-6.5
-1.11
3.23
6.43
8.67
10.22
11.28
11.92
12.06
11.66
10.69
9.29
7.66
6.07
4.74
3.87
3.56
3.77
4.38
5.17
5.95
6.53
6.81
6.75
6.35
5.68
4.82
3.93
3.12
2.41
1.7
0.83
-0.34
-1.81
-3.44
-5.04
-6.49
-7.82
-9.21
-10.93
-13.2
-16.08
-19.44
-22.96
-26.08
-28.16
-28.63
-27.18
-23.89
-19.19
-13.72
-8.14
-2.92
1.7
5.61
8.8
11.21
12.82
13.61
13.71
13.31
12.64
11.93
11.3
10.81
10.48
10.35
10.47
10.9
11.6
12.43
13.14
13.47
13.24
12.44
11.22
9.78
8.34
7
5.75
4.48
3.04
1.33
-0.67
-2.85
-5.02
-6.94
-8.49
-9.69
-10.79
-12.13
-14.04
-16.71
-19.99
-23.5
-26.58
-28.6
-29.03
-27.68
-24.67
-20.41
-15.48
-10.45
-5.82
-1.87
1.27
3.72
5.67
7.31
8.76
9.96
10.83
11.25
11.21
10.78
10.1
9.29
8.45
7.67
7.05
6.68
6.57
6.64
6.66
6.4
5.72
4.68
3.49
2.37
1.45
0.68
-0.08
-1.03
-2.24
-3.65
-5.12
-6.53
-7.84
-9.08
-10.4
-11.86
-13.51
-15.33
-17.28
-19.34
-21.42
-23.31
-24.57
-24.66
-23.09
-19.68
-14.68
-8.75
-2.73
2.69
7.11
10.52
13.07
14.95
16.22
16.8
16.64
15.72
14.2
12.34
10.43
8.77
7.52
6.8
6.56
6.71
7.06
7.47
7.78
7.88
7.7
7.19
6.37
5.22
3.81
2.24
0.64
-0.85
-2.17
-3.36
-4.58
-5.92
-7.42
-8.96
-10.36
-11.51
-12.5
-13.6
-15.14
-17.33
-20.04
-22.84
-25.1
-26.19
-25.74
-23.68
-20.26
-15.92
-11.18
-6.48
-2.18
1.52
4.54
6.92
8.74
10.12
11.15
11.89
12.33
12.44
12.18
11.57
10.66
9.61
8.59
7.77
7.28
7.17
7.43
7.92
8.43
8.71
8.59
7.96
6.87
5.48
4.02
2.64
1.46
0.47
-0.43
-1.35
-2.38
-3.55
-4.86
-6.24
-7.65
-9.08
-10.53
-12.06
-13.71
-15.48
-17.33
-19.04
-20.29
-20.64
-19.69
-17.2
-13.26
-8.28
-2.93
2.12
6.34
9.52
11.71
13.15
14.13
14.84
15.41
15.81
15.94
15.74
15.17
14.31
13.27
12.23
11.26
10.4
9.64
8.96
8.43
8.1
7.99
8.09
8.26
8.32
8.12
7.56
6.68
5.61
4.55
3.66
3
2.47
1.84
0.79
-0.83
-3.02
-5.52
-7.94
-9.91
-11.31
-12.24
-13.04
-14.12
-15.76
-18.01
-20.67
-23.27
-25.27
-26.17
-25.69
-23.75
-20.55
-16.44
-11.87
-7.29
-3.08
0.46
3.25
5.29
6.72
7.63
8.09
8.12
7.74
7.05
6.22
5.46
4.93
4.7
4.72
4.89
5.11
5.32
5.49
5.55
5.44
5.12
4.59
3.92
3.2
2.49
1.78
0.97
-0.01
-1.19
-2.53
-3.86
-4.98
-5.82
-6.41
-6.97
-7.74
-8.92
-10.54
-12.5
-14.68
-16.94
-19.19
-21.21
-22.67
-23.07
-21.95
-19.11
-14.72
-9.34
-3.69
1.57
6.04
9.59
12.31
14.29
15.61
16.24
16.21
15.57
14.49
13.21
11.92
10.79
9.87
9.12
8.45
7.8
7.14
6.49
5.94
5.57
5.44
5.5
5.63
5.72
5.66
5.46
5.22
5.05
4.98
4.93
4.69
4.05
2.85
1.13
-0.96
-3.15
-5.24
-7.11
-8.8
-10.47
-12.33
-14.55
-17.21
-20.18
-23.14
-25.61
-27.05
-27.01
-25.29
-21.99
-17.49
-12.35
-7.12
-2.25
1.98
5.47
8.19
10.17
11.53
12.44
13.12
13.77
14.46
15.11
15.5
15.5
15.1
14.5
13.95
13.67
13.68
13.87
14.05
14.11
14.05
13.9
13.68
13.32
12.73
11.79
10.48
8.9
7.19
5.5
3.89
2.36
0.8
-0.87
-2.71
-4.67
-6.67
-8.55
-10.24
-11.7
-13.07
-14.53
-16.29
-18.51
-21.16
-23.94
-26.34
-27.71
-27.49
-25.4
-21.59
-16.61
-11.23
-6.17
-1.91
1.44
4.05
6.22
8.15
9.87
11.28
12.17
12.47
12.22
11.61
10.86
10.14
9.52
8.94
8.35
7.78
7.34
7.19
7.42
7.98
8.66
9.16
9.23
8.76
7.82
6.6
5.33
4.14
3.08
2.06
0.97
-0.27
-1.74
-3.44
-5.35
-7.39
-9.42
-11.28
-12.81
-14.02
-15
-16.02
-17.3
-18.94
-20.76
-22.32
-23.04
-22.44
-20.27
-16.68
-12.1
-7.14
-2.4
1.67
4.86
7.18
8.79
9.87
10.54
10.85
10.77
10.32
9.6
8.82
8.2
7.92
8.02
8.42
8.96
9.44
9.71
9.72
9.53
9.22
8.88
8.5
8.05
7.46
6.68
5.76
4.73
3.62
2.32
0.7
-1.4
-3.93
-6.7
-9.34
-11.56
-13.24
-14.54
-15.82
-17.5
-19.84
-22.77
-25.91
-28.59
-30.08
-29.81
-27.54
-23.46
-18.1
-12.16
-6.34
-1.17
3.07
6.34
8.71
10.34
11.36
11.83
11.77
11.2
10.14
8.65
6.84
4.85
2.86
1.11
-0.12
-0.5
0.14
1.73
3.93
6.18
7.9
8.67
8.39
7.21
5.46
3.43
1.25
-1.08
-3.7
-6.67
-9.91
-13.14
-15.94
-17.94
-18.92
-19.03
-18.67
-18.47
-19.08
-20.96
-24.21
-28.56
-33.38
-37.79
-40.99
-42.42
-41.98
-40.06
-37.33
-34.54
-32.32
-30.91
-30.18
-29.63
-28.54
-26.19
-22.05
-16
-8.47
-0.29
7.57
14.37
19.76
23.87
27.09
29.79
32.19
34.38
36.49
38.86
42.01
46.41
52.2
59.1
66.44
73.41
79.38
84.02
87.34
89.53
90.8
91.32
91.02
89.69
86.84
81.98
74.7
65.01
53.37
40.62
27.7
15.27
3.55
-7.59
-18.3
-28.47
-37.63
-45.03
-50.04
-52.36
-52.24
-50.3
-47.37
-44.23
-41.35
-38.93
-36.95
-35.29
-33.99
-33.18
-33
-33.46
-34.32
-35.08
-35.19
-34.27
-32.25
-29.43
-26.27
-23.21
-20.52
-18.26
-16.32
-14.53
-12.75
-10.91
-9.03
-7.27
-5.86
-4.97
-4.71
-5.01
-5.75
-6.76
-7.94
-9.29
-10.81
-12.52
-14.41
-16.53
-18.93
-21.57
-24.27
-26.57
-27.8
-27.32
-24.75
-20.17
-14.15
-7.55
-1.27
4.07
8.26
11.44
13.95
16.09
17.9
19.23
19.84
19.59
18.61
17.3
16.13
15.4
15.18
15.29
15.43
15.45
15.29
15.02
14.71
14.36
13.91
13.23
12.24
10.87
9.12
7.03
4.69
2.18
-0.45
-3.17
-5.94
-8.74
-11.58
-14.5
-17.61
-21.06
-24.92
-29.06
-33.01
-36.07
-37.46
-36.61
-33.36
-28.07
-21.39
-14.12
-6.97
-0.36
5.49
10.52
14.72
18.03
20.39
21.74
22.19
21.93
21.29
20.6
20.08
19.83
19.78
19.82
19.84
19.84
19.86
19.99
20.24
20.52
20.61
20.31
19.41
17.85
15.68
13.05
10.19
7.32
4.61
2.16
-0.03
-2.04
-4.05
-6.3
-9.02
-12.38
-16.34
-20.63
-24.72
-27.84
-29.24
-28.35
-25.03
-19.58
-12.72
-5.32
1.87
8.33
13.86
18.44
22.16
25.05
27.09
28.2
28.4
27.76
26.47
24.82
23.1
21.54
20.27
19.37
18.77
18.42
18.19
17.97
17.66
17.2
16.55
15.75
14.83
13.78
12.54
10.99
9.03
6.61
3.77
0.62
-2.7
-6.01
-9.18
-12.12
-14.82
-17.45
-20.21
-23.25
-26.47
-29.44
-31.45
-31.78
-29.92
-25.85
-20
-13.12
-6.02
0.66
6.52
11.38
15.18
17.89
19.5
20.01
19.58
18.44
17.01
15.69
14.79
14.4
14.39
14.5
14.44
14.09
13.46
12.7
12.02
11.54
11.27
11.09
10.78
10.1
8.86
7.03
4.74
2.23
-0.23
-2.45
-4.43
-6.3
-8.29
-10.63
-13.51
-17
-20.95
-24.99
-28.48
-30.67
-30.84
-28.61
-24.07
-17.76
-10.6
-3.51
2.76
7.83
11.67
14.47
16.52
17.98
18.96
19.44
19.42
18.95
18.23
17.5
16.98
16.78
16.82
16.97
17.02
16.86
16.45
15.82
15.02
14.06
12.88
11.45
9.74
7.8
5.71
3.58
1.46
-0.63
-2.69
-4.74
-6.77
-8.76
-10.73
-12.76
-14.96
-17.47
-20.29
-23.23
-25.78
-27.33
-27.27
-25.24
-21.3
-15.88
-9.7
-3.5
2.12
6.84
10.61
13.5
15.67
17.21
18.17
18.55
18.4
17.79
16.88
15.85
14.88
14.09
13.53
13.16
12.89
12.63
12.35
12.02
11.68
11.31
10.83
10.13
9.08
7.64
5.84
3.85
1.82
-0.11
-1.94
-3.81
-5.89
-8.3
-11.04
-13.93
-16.75
-19.33
-21.68
-24.04
-26.72
-29.84
-33.15
-35.97
-37.4
-36.68
-33.53
-28.38
-22.26
-16.52
-12.4
-10.72
-11.67
-14.85
-19.27
-23.49
-25.79
-24.53
-18.56
-7.72
6.92
23.29
38.85
51.46
59.99
64.56
66.21
66.34
66.06
65.93
65.99
66
65.78
65.21
64.21
62.6
60.1
56.34
51.03
44.08
35.7
26.39
16.93
8.18
0.87
-4.64
-8.53
-11.37
-13.87
-16.54
-19.39
-21.97
-23.6
-23.69
-22.01
-18.81
-14.62
-10.07
-5.68
-1.79
1.47
4.02
5.87
6.97
7.3
6.85
5.72
4.07
2.12
0.09
-1.92
-3.86
-5.83
-7.88
-10.03
-12.13
-13.95
-15.35
-16.35
-17.3
-18.69
-21.02
-24.49
-28.99
-34.08
-39.28
-44.15
-48.38
-51.62
-53.42
-53.25
-50.71
-45.81
-39.1
-31.52
-24.11
-17.61
-12.32
-8.15
-4.79
-1.98
0.42
2.39
3.92
4.98
5.61
5.87
5.88
5.8
5.85
6.24
7.06
8.28
9.69
11.03
12.08
12.73
12.95
12.8
12.32
11.49
10.36
8.96
7.42
5.91
4.6
3.6
2.97
2.72
2.75
2.97
3.2
3.25
2.97
2.28
1.22
-0.05
-1.3
-2.33
-3.05
-3.5
-3.81
-4.17
-4.76
-5.78
-7.39
-9.7
-12.69
-16.12
-19.55
-22.44
-24.18
-24.42
-23.1
-20.53
-17.21
-13.65
-10.16
-6.8
-3.43
0.17
4.09
8.26
12.42
16.25
19.49
21.94
23.57
24.42
24.53
23.91
22.58
20.54
17.9
14.88
11.76
8.86
6.39
4.43
2.89
1.66
0.62
-0.27
-1.02
-1.66
-2.26
-2.91
-3.69
-4.59
-5.53
-6.42
-7.18
-7.83
-8.48
-9.29
-10.46
-12.06
-14.05
-16.14
-17.87
-18.75
-18.42
-16.8
-14.17
-11.02
-7.92
-5.27
-3.25
-1.83
-0.83
-0.09
0.55
1.15
1.76
2.37
3.01
3.67
4.38
5.14
5.93
6.73
7.45
8.05
8.47
8.73
8.86
8.92
8.95
8.96
8.86
8.5
7.72
6.36
4.39
1.84
-1.05
-3.98
-6.66
-8.91
-10.77
-12.47
-14.31
-16.59
-19.4
-22.65
-26.04
-29.21
-31.86
-33.85
-35.2
-36.07
-36.66
-37.13
-37.6
-38.12
-38.77
-39.62
-40.81
-42.51
-44.84
-47.9
-51.7
-56.16
-61.07
-66.16
-71.12
-75.73
-79.98
-84.22
-89.09
-95.39
-103.57
-113.33
-123.27
-131.28
-135.17
-133.77
-127.37
-117.61
-106.63
-96.02
-86.22
-76.47
-65.26
-50.89
-31.66
-6.09
26.83
67.06
112.9
160.63
205.08
240.85
263.88
272.64
268.49
255.1
237.4
220.3
207.71
201.8
202.8
209.14
217.99
226.04
230.18
228.16
219.09
203.63
184.05
163.76
146.23
133.76
126.19
120.66
112.5
97.1
71.91
37.57
-2.53
-43.83
-82.53
-116.8
-146.71
-173.11
-196.41
-215.8
-229.65
-236.32
-235.14
-226.66
-212.33
-193.86
-172.71
-149.98
-126.67
-103.84
-82.61
-63.84
-47.87
-34.39
-22.63
-11.78
-1.34
8.69
17.85
25.61
31.63
35.91
38.82
40.91
42.78
45.06
48.39
53.32
60.19
68.84
78.46
87.78
95.44
100.59
103.32
104.55
105.65
107.81
111.45
116.13
120.76
124.11
125.28
124
120.63
115.86
110.2
103.61
95.44
84.6
70.05
51.06
27.37
-0.83
-32.7
-66.53
-99.53
-128.09
-148.66
-159.08
-159.6
-153.09
-143.98
-136.55
-133.49
-135.43
-141.62
-150.91
-162.23
-174.27
-184.83
-190.75
-188.79
-177.1
-156.38
-129.96
-102.49
-78.02
-58.59
-43.93
-32.4
-22.32
-13.01
-4.79
1.57
5.61
7.6
8.5
9.54
11.89
16.24
22.72
30.8
39.52
47.63
54.02
58.02
59.58
59.21
57.6
55.27
52.33
48.55
43.63
37.61
30.98
24.61
19.22
15.1
11.84
8.53
4.17
-1.89
-9.53
-17.87
-25.33
-30.21
-31.15
-27.73
-20.78
-12.34
-5.34
-2.9
-7.51
-20.18
-40.12
-64.85
-90.95
-115.05
-134.7
-148.79
-157.44
-161.5
-161.97
-159.54
-154.29
-145.78
-133.25
-116.16
-94.79
-70.67
-46.61
-26.02
-11.89
-5.76
-7.06
-13.52
-22.08
-30.26
-37.09
-43.32
-50.85
-61.39
-75.29
-90.78
-104.19
-111.2
-108.57
-95.49
-73.89
-47.44
-19.97
6.07
30.06
52.66
74.71
96.29
116.55
134.15
148.06
158.08
164.88
169.52
172.93
175.39
176.58
175.83
172.65
167.21
160.32
153.12
146.4
140.11
133.27
124.64
113.44
100.05
85.93
72.97
62.49
54.63
48.33
41.9
33.92
23.72
11.62
-1.42
-14.24
-25.93
-35.94
-44.07
-50.28
-54.56
-56.88
-57.18
-55.49
-52.01
-47.1
-41.13
-34.29
-26.49
-17.41
-6.78
5.29
18.11
30.47
41.03
48.82
53.56
55.68
56.11
55.91
55.9
56.56
57.93
59.72
61.41
62.4
62.19
60.54
57.56
53.57
48.91
43.77
38.17
32.12
25.83
19.78
14.71
11.19
9.44
9.15
9.63
10.05
9.77
8.39
5.86
2.34
-1.92
-6.63
-11.53
-16.31
-20.66
-24.18
-26.47
-27.25
-26.4
-24.13
-20.95
-17.55
-14.66
-12.74
-11.92
-11.96
-12.38
-12.74
-12.69
-12.12
-11.01
-9.4
-7.24
-4.45
-0.98
3.08
7.44
11.64
15.18
17.68
18.99
19.26
18.99
18.79
19.31
21
23.91
27.58
31.11
33.48
33.97
32.58
30.3
28.87
30.2
35.52
44.75
56.24
67.18
74.42
75.59
69.75
57.73
41.95
25.79
12.67
4.91
2.58
2.9
0.45
-11.02
-36.18
-75.76
-125.6
-177.71
-222.87
-253.54
-265.74
-259.4
-237.39
-204.27
-165.22
-125.47
-89.96
-62.65
-45.84
-39.67
-42.26
-50.53
-61.27
-72.04
-81.5
-89.28
-95.49
-100.23
-103.17
-103.31
-99.12
-89.06
-72.23
-49.04
-21.4
7.62
34.58
56.52
71.66
79.55
80.81
76.63
68.27
57.01
44.18
31.43
20.62
13.45
10.83
12.37
16.45
20.87
23.74
24.34
23.17
21.48
20.43
20.51
21.47
22.72
23.8
24.52
24.89
24.88
24.32
23.09
21.35
19.63
18.65
18.95
20.57
22.87
24.75
25.03
22.86
18.03
11.15
3.48
-3.23
-7.16
-6.88
-1.85
7.29
18.81
30.33
39.64
45.35
47.28
46.37
44.07
41.76
40.2
39.44
39.08
38.67
37.97
37.02
36.01
35.06
34.14
33.15
32.07
30.94
29.84
28.7
27.26
25.07
21.71
16.98
10.95
4.04
-3.14
-9.96
-15.83
-20.39
-23.52
-25.4
-26.45
-27.17
-28.05
-29.42
-31.38
-33.78
-36.23
-38.09
-38.54
-36.75
-32.14
-24.69
-15.04
-4.4
5.84
14.45
20.73
24.54
26.21
26.26
25.23
23.57
21.6
19.59
17.84
16.62
16.22
16.75
18.12
19.93
21.55
22.27
21.53
19.14
15.32
10.7
6
1.9
-1.23
-3.32
-4.55
-5.18
-5.43
-5.5
-5.49
-5.55
-5.83
-6.53
-7.74
-9.32
-10.9
-11.9
-11.8
-10.34
-7.65
-4.19
-0.56
2.74
5.44
7.45
8.83
9.59
9.7
9.11
7.92
6.36
4.77
3.47
2.55
1.86
0.96
-0.7
-3.61
-7.96
-13.58
-19.87
-26.04
-31.29
-35.06
-37.23
-37.95
-37.52
-36.05
-33.32
-28.82
-22.02
-12.78
-1.58
10.39
21.55
30.4
35.98
38.14
37.49
35.16
32.49
30.69
30.57
32.28
35.21
38.14
39.75
39.12
36.25
32.06
27.97
25.24
24.41
25.17
26.66
28.02
28.74
28.77
28.33
27.66
26.86
25.92
24.84
23.7
22.63
21.75
21.08
20.5
19.8
18.63
16.64
13.57
9.36
4.27
-1.34
-7.21
-13.44
-20.54
-29.27
-40.2
-53.1
-66.73
-79.12
-88.27
-92.98
-93.21
-89.66
-83.23
-74.42
-63.12
-49.12
-32.59
-14.45
3.94
21.41
37.48
52.01
64.28
73.16
77.63
77.67
74.81
71.84
71.76
76.42
85.41
95.46
102.68
104.36
99.89
90.47
77.85
63.75
49.84
37.45
26.58
17.42
10.36
5.73
3.14
1.05
-2.4
-8.3
-16.96
-29.22
-44.42
-60.36
-73.67
-81.21
-81.69
-75.53
-64
-37.49
9.02
73.7
147.37
219
281.2
330.72
365.44
388.6
402.37
406.05
398.5
379.1
347.76
307.98
262.79
214.89
167.03
120.97
76.66
33.98
-6.62
-43.78
-75.63
-101
-119.3
-130.4
-135.28
-136.41
-136.39
-137.21
-139.75
-143.76
-148.59
-153.35
-157.1
-159.74
-162.28
-166.2
-172.87
-182.96
-196.15
-211.5
-227.76
-243.67
-258.67
-273.13
-287.97
-304.46
-324.16
-348.81
-380.02
-418
-460.27
-500.96
-531.8
-544.74
-535.1
-503.86
-457.52
-405.64
-357.24
-318.07
-289.89
-271.61
-261.03
-255.8
-253.34
-250.29
-242.51
-226.26
-199.76
-164.31
-124.06
-84.35
-49.98
-23.58
-5.35
6.32
13.73
19.08
23.94
29.2
35.15
41.68
48.38
54.84
60.95
66.93
73.48
81.46
91.63
104.29
119.15
135.51
152.49
169.48
186.3
203.3
221.14
240.61
262.5
287.46
315.72
346.7
378.58
408.31
432.15
446.8
450.54
443.71
428.27
406.58
380.28
349.98
315.76
278.16
238.47
198.19
158.01
117.17
74.08
27.64
-21.31
-69.85
-113.94
-149.83
-175.1
-188.61
-190.02
-179.65
-159.17
-132.34
-104.93
-83.23
-71.45
-69.88
-74.79
-80.73
-83.47
-81.99
-78.13
-74.47
-72.13
-69.97
-65.73
-57.93
-47.25
-36.03
-26.69
-19.87
-13.8
-5.21
8.76
28.88
53.37
78.66
100.96
117.71
128.31
133.82
136.17
137.2
137.84
138
137.01
134.27
129.8
124.25
118.58
113.34
108.46
103.41
97.7
91.33
84.82
78.7
73.04
67.33
60.89
53.54
46.07
39.88
36.3
35.73
37.4
39.77
41.24
40.78
37.89
32.27
23.47
11.06
-4.91
-23.32
-42.06
-58.65
-71.19
-79.25
-83.88
-87.13
-91.18
-97.61
-107.12
-119.67
-134.76
-151.73
-170.01
-189.02
-208.08
-226.12
-241.64
-252.78
-257.8
-255.7
-246.69
-232.23
-214.31
-194.77
-174.69
-154.6
-135.02
-116.86
-101.38
-89.51
-81.1
-74.7
-68.19
-59.81
-49.2
-37.64
-27.36
-20.59
-18.47
-20.68
-25.63
-31.05
-34.67
-34.76
-30.47
-21.88
-9.67
5.24
22.18
40.84
61.01
82.29
103.71
123.84
141.16
154.41
162.78
165.8
163.19
154.99
141.98
125.94
109.45
95.18
84.77
78.25
74.17
70.38
65.17
58.05
49.95
42.6
37.68
35.9
36.69
38.67
40.42
41.5
42.82
46.28
53.71
65.78
81.38
98.1
113.35
125.67
135.26
143.53
151.89
160.69
168.82
174.33
175.51
171.81
164.12
154.31
144.26
135.05
126.67
118.27
108.85
97.88
85.61
72.79
60.24
48.33
36.87
25.32
13.28
0.86
-11.24
-21.98
-30.47
-36.4
-40.15
-42.68
-45.08
-48.18
-52.29
-57.24
-62.48
-67.3
-71.04
-73.21
-73.6
-72.27
-69.61
-66.16
-62.51
-59.06
-56.05
-53.5
-51.34
-49.51
-47.96
-46.64
-45.43
-44.24
-42.94
-41.55
-40.24
-39.22
-38.62
-38.4
-38.33
-38.09
-37.43
-36.28
-34.83
-33.36
-32.02
-30.81
-29.49
-27.82
-25.6
-22.82
-19.58
-16.04
-12.34
-8.62
-5.06
-1.95
0.41
1.81
2.22
1.82
0.9
-0.25
-1.44
-2.58
-3.69
-4.82
-5.99
-7.18
-8.3
-9.23
-9.89
-10.26
-10.45
-10.56
-10.71
-10.94
-11.18
-11.36
-11.38
-11.24
-10.98
-10.68
-10.37
-10.08
-9.86
-9.77
-9.9
-10.27
-10.77
-11.18
-11.16
-10.47
-9.02
-6.93
-4.5
-2.05
0.13
1.89
3.15
3.94
4.31
4.34
4.07
3.53
2.73
1.68
0.4
-0.94
-2.15
-3
-3.33
-3.21
-2.85
-2.52
-2.41
-2.51
-2.71
-2.83
-2.75
-2.53
-2.32
-2.3
-2.61
-3.23
-4.04
-4.89
-5.61
-6.16
-6.59
-7.1
-8.03
-9.82
-12.89
-17.52
-23.63
-30.72
-37.86
-43.92
-47.89
-49.27
-48.27
-45.68
-42.6
-39.95
-38.18
-37.13
-36.25
-34.87
-32.5
-28.98
-24.42
-19.12
-13.35
-7.24
-0.88
5.76
12.59
19.36
25.72
31.25
35.66
38.9
41.09
42.47
43.23
43.41
42.91
41.6
39.42
36.47
32.99
29.31
25.72
22.41
19.36
16.43
13.42
10.16
6.6
2.83
-0.91
-4.31
-7.09
-9.04
-10.08
-10.24
-9.71
-8.69
-7.37
-5.87
-4.22
-2.43
-0.52
1.41
3.19
4.59
5.49
5.82
5.66
5.12
4.32
3.43
2.55
1.76
1.08
0.49
-0.06
-0.63
-1.22
-1.8
-2.33
-2.86
-3.51
-4.48
-5.94
-7.96
-10.48
-13.31
-16.18
-18.9
-21.39
-23.66
-25.92
-28.41
-31.45
-35.29
-40.01
-45.4
-50.91
-55.83
-59.53
-61.8
-63.01
-63.98
-65.64
-68.67
-73.07
-78.24
-83.21
-86.99
-88.96
-89.06
-87.79
-86.03
-84.8
-84.89
-86.6
-89.56
-92.91
-95.63
-97.12
-97.55
-97.93
-99.68
-104.02
-111.3
-120.62
-130.06
-137.26
-140.15
-137.42
-128.64
-114.04
-94.15
-69.57
-40.97
-9.14
25
60.64
97.16
134.03
170.52
205.3
236.42
261.74
279.77
290.37
294.89
295.58
294.69
293.73
293.3
293.36
293.67
294.07
294.4
294.29
293.22
290.78
286.98
282.18
276.73
270.36
261.97
249.87
232.21
207.58
175.37
136.09
91.52
44.78
-0.04
-38.83
-68.71
-89.1
-101.84
-110.18
-117.18
-124.2
-130.62
-134.53
-134.14
-128.83
-119.41
-107.53
-94.97
-83.32
-73.88
-67.94
-66.64
-70.49
-78.89
-89.8
-100.12
-106.65
-107.24
-101.54
-91
-78.23
-65.78
-55.31
-47.17
-40.76
-35.21
-30.01
-25.25
-21.35
-18.62
-16.98
-15.98
-15.24
-14.7
-14.78
-16.06
-18.87
-22.94
-27.38
-31
-32.82
-32.39
-29.94
-26.23
-22.1
-18.27
-15.11
-12.65
-10.74
-9.17
-7.85
-6.83
-6.37
-6.82
-8.48
-11.41
-15.35
-19.74
-23.91
-27.31
-29.64
-30.88
-31.2
-30.73
-29.46
-27.29
-24.17
-20.25
-15.98
-11.98
-8.84
-6.79
-5.68
-4.96
-4.06
-2.58
-0.49
1.96
4.48
6.89
9.24
11.7
14.43
17.45
20.64
23.77
26.5
28.43
29.01
27.66
23.94
17.71
9.32
-0.53
-10.9
-20.92
-29.9
-37.44
-43.37
-47.67
-50.46
-51.95
-52.42
-52.09
-51.16
-49.66
-47.49
-44.51
-40.55
-35.59
-29.76
-23.37
-16.84
-10.61
-5.09
-0.51
3.03
5.58
7.22
8.07
8.23
7.8
6.99
6.07
5.36
5.05
5.14
5.44
5.63
5.52
5.08
4.51
4.05
3.84
3.83
3.81
3.6
3.13
2.48
1.78
1.08
0.35
-0.55
-1.73
-3.29
-5.25
-7.61
-10.34
-13.4
-16.65
-19.81
-22.47
-24.18
-24.51
-23.27
-20.56
-16.73
-12.33
-7.94
-3.98
-0.62
2.22
4.74
7.08
9.22
10.98
12.15
12.61
12.43
11.94
11.45
11.23
11.39
11.79
12.24
12.55
12.64
12.56
12.42
12.32
12.25
12.1
11.66
10.75
9.32
7.46
5.37
3.25
1.23
-0.7
-2.61
-4.58
-6.65
-8.85
-11.25
-13.94
-17.09
-20.72
-24.62
-28.29
-31.08
-32.38
-31.91
-29.79
-26.45
-22.49
-18.39
-14.42
-10.58
-6.8
-3.02
0.75
4.38
7.71
10.52
12.61
13.78
13.96
13.25
11.96
10.48
9.18
8.19
7.33
6.26
4.57
2.03
-1.32
-5.22
-9.3
-13.22
-16.75
-19.75
-22.02
-23.26
-23.04
-21.05
-17.33
-12.52
-7.8
-4.48
-3.51
-5.02
-8.22
-11.77
-14.28
-14.93
-13.61
-10.89
-7.64
-4.68
-2.45
-0.96
0.02
0.76
1.23
1.09
-0.24
-3.16
-7.59
-12.89
-18.14
-22.68
-26.46
-30.08
-34.18
-38.95
-43.79
-47.74
-50.22
-51.47
-52.41
-53.66
-54.54
-52.71
-45.02
-29.17
-5.32
23.27
51.29
73.3
85.9
88.64
83.86
75.12
65.69
57.47
50.92
45.59
40.88
36.57
32.79
29.85
27.83
26.46
25.25
23.76
21.84
19.79
18.23
17.82
18.96
21.5
24.79
27.93
30.09
30.86
30.34
29.07
27.73
26.82
26.46
26.36
26.01
24.9
22.87
20.15
17.33
15.09
13.88
13.8
14.51
15.43
15.94
15.64
14.42
12.45
10.04
7.47
4.9
2.33
-0.37
-3.42
-7.13
-11.77
-17.46
-24.08
-31.07
-37.59
-42.67
-45.58
-46.12
-44.72
-42.32
-40.01
-38.64
-38.57
-39.61
-41.19
-42.56
-43.15
-42.78
-41.79
-41.06
-41.78
-45.16
-52
-62.34
-75.41
-89.74
-103.58
-115.34
-123.84
-128.52
-129.62
-128.08
-125.4
-123.16
-122.35
-122.95
-123.86
-123.32
-119.71
-112.25
-101.24
-87.82
-73.47
-59.46
-46.69
-35.82
-27.63
-23.26
-23.91
-30.37
-42.44
-58.77
-77.05
-94.46
-108.35
-116.66
-118.17
-112.51
-100.09
-81.99
-59.73
-35.09
-9.71
15.24
39.31
62.77
86.35
111.1
138.03
167.87
200.56
234.83
268.01
296.53
317.05
327.56
328.06
320.42
307.41
291.55
274.36
256.39
237.74
218.71
200
182.52
166.91
153.26
141.3
130.78
121.78
114.68
109.82
107.08
105.67
104.37
102
97.87
92.04
85.13
78.11
71.92
67.23
64.2
62.26
59.98
55.25
46.07
31.39
11.89
-9.94
-30.65
-47.04
-57.01
-59.85
-55.75
-45.27
-29.19
-8.71
13.99
35.74
52.85
62.01
61.04
49.23
27.15
-3.49
-39.91
-78.46
-115.26
-147.18
-172.78
-192.38
-207.16
-217.84
-223.85
-223.68
-216.29
-202.61
-185.9
-170.66
-160.56
-156.85
-158.07
-161.13
-163.22
-163.07
-161
-157.97
-154.49
-149.81
-142.21
-129.67
-110.75
-85.04
-53.12
-16.21
24.06
65.61
105.87
141.82
170.32
188.79
195.84
191.7
178.05
157.51
132.96
107.03
81.88
59.08
39.59
23.7
11.05
0.78
-8.11
-16.34
-24.06
-30.83
-35.94
-38.7
-38.84
-36.62
-32.77
-28.25
-23.9
-20.22
-17.22
-14.45
-11.18
-6.62
-0.18
8.4
18.85
30.32
41.42
50.39
55.51
55.57
50.25
40.25
27.13
12.76
-1.13
-13.35
-23.26
-30.55
-35.04
-36.55
-35.14
-31.25
-25.9
-20.54
-16.59
-15.01
-15.91
-18.56
-21.74
-24.08
-24.59
-22.8
-18.7
-12.67
-5.32
2.58
10.18
16.66
21.45
24.4
25.81
26.31
26.54
26.94
27.7
28.75
29.99
31.31
32.56
33.5
33.74
32.91
30.84
27.65
23.74
19.63
15.68
12.1
8.89
6.02
3.49
1.29
-0.66
-2.6
-4.85
-7.7
-11.29
-15.54
-20.13
-24.54
-28.14
-30.28
-30.45
-28.4
-24.32
-18.82
-12.78
-7.1
-2.44
0.91
2.98
4.01
4.16
3.54
2.12
-0.14
-3.16
-6.7
-10.39
-13.86
-16.88
-19.53
-22.13
-25.14
-28.99
-33.96
-40.03
-46.87
-53.89
-60.32
-65.46
-68.69
-69.7
-68.47
-65.3
-60.84
-55.98
-51.74
-48.97
-48.05
-48.71
-50.02
-50.7
-49.64
-46.44
-41.74
-36.93
-33.52
-32.38
-33.16
-34.38
-34.14
-31.04
-24.82
-16.47
-7.64
0.23
6.52
11.38
15.3
18.55
21.03
22.68
23.93
25.87
29.82
36.53
45.66
55.79
65.06
71.96
75.84
76.8
75.31
71.85
66.8
60.7
54.31
48.59
44.38
42.04
41.33
41.65
42.35
43.06
43.73
44.48
45.41
46.38
47.02
46.88
45.59
43.07
39.6
35.81
32.54
30.53
30.25
31.71
34.41
37.48
39.94
40.96
40.03
37.14
32.67
27.34
22
17.48
14.47
13.32
13.96
15.84
18.12
19.81
20.18
18.98
16.51
13.52
10.88
9.3
9.11
10.19
12.13
14.45
16.67
18.5
19.79
20.48
20.63
20.39
20.07
19.97
20.36
21.24
22.17
22.29
20.5
15.76
7.68
-3.12
-14.93
-25.36
-32.11
-33.79
-30.38
-23.07
-13.54
-3.17
7.4
18.11
28.79
38.62
45.97
49.01
46.62
39.09
28.09
16.06
5.25
-2.91
-7.92
-9.83
-8.8
-4.93
1.64
10.35
20.04
29.17
36.34
40.76
42.58
42.57
41.63
40.24
38.22
35.01
30.11
23.5
15.72
7.62
0.08
-6.42
-11.7
-15.85
-19.09
-21.72
-24.18
-27.05
-30.88
-35.96
-42.15
-48.9
-55.41
-60.94
-64.91
-66.92
-66.66
-63.97
-58.98
-52.25
-44.77
-37.67
-31.86
-27.59
-24.5
-21.72
-18.42
-14.17
-9.1
-3.87
0.61
3.62
4.84
4.5
3.25
1.82
0.83
0.51
0.78
1.39
2.14
2.95
3.85
4.86
5.84
6.53
6.69
6.21
5.18
3.85
2.5
1.32
0.37
-0.4
-1.06
-1.68
-2.26
-2.71
-2.82
-2.34
-1.07
1.02
3.7
6.55
9.09
10.95
12.02
12.46
12.53
12.45
12.34
12.1
11.58
10.66
9.3
7.62
5.82
4.16
2.81
1.79
1.03
0.42
-0.11
-0.52
-0.72
-0.65
-0.39
-0.17
-0.23
-0.78
-1.78
-3.03
-4.25
-5.21
-5.86
-6.32
-6.85
-7.68
-8.96
-10.65
-12.59
-14.53
-16.15
-17.2
-17.49
-16.97
-15.67
-13.81
-11.62
-9.35
-7.12
-4.93
-2.73
-0.45
1.8
3.77
5.12
5.56
4.99
3.57
1.72
-0.02
-1.24
-1.69
-1.46
-0.85
-0.21
0.2
0.33
0.4
0.65
1.23
2.06
2.88
3.3
3.09
2.25
1.02
-0.19
-0.96
-1.02
-0.32
0.99
2.68
4.47
6.13
7.47
8.35
8.65
8.3
7.29
5.69
3.68
1.46
-0.8
-2.93
-4.83
-6.39
-7.51
-8.07
-8.03
-7.42
-6.44
-5.39
-4.58
-4.23
-4.37
-4.9
-5.59
-6.27
-6.83
-7.34
-7.9
-8.6
-9.47
-10.46
-11.52
-12.66
-13.95
-15.49
-17.27
-19.14
-20.79
-21.79
-21.7
-20.24
-17.31
-13.12
-8.09
-2.82
2.13
6.28
9.48
11.82
13.56
14.95
16.1
16.88
17.02
16.34
14.85
12.88
10.99
9.83
9.92
11.51
14.43
18.16
21.82
24.42
25.06
23.15
18.62
11.92
3.85
-4.69
-13.04
-20.86
-28.11
-34.86
-41.24
-47.44
-53.87
-61.32
-70.81
-83.35
-99.37
-118.49
-139.32
-159.81
-177.94
-192.2
-202.2
-208.57
-212.66
-215.92
-219.4
-223.54
-228.02
-231.9
-233.65
-231.21
-222.27
-204.77
-177.8
-142.19
-100.71
-57.23
-15.42
22.54
56.42
87.41
116.81
144.88
170.42
191.36
205.83
213.07
213.65
209.05
200.83
190.24
178.03
164.88
151.6
139.27
128.85
120.9
115.33
111.39
108.02
104.21
99.39
93.63
87.61
82.45
79.24
78.58
80.14
82.73
84.71
84.81
82.85
79.83
77.46
77.2
79.41
83.13
86.63
88.4
87.99
86.33
85.13
86.04
89.8
96.01
103.39
110.48
116.26
120.37
123
124.54
125.21
124.94
123.44
120.48
116.13
110.81
105.16
99.73
94.66
89.53
83.5
75.65
65.33
52.51
37.89
22.68
8.36
-3.89
-13.69
-21.65
-29.31
-38.51
-50.73
-66.67
-86.4
-109.8
-136.78
-167.02
-199.23
-230.57
-256.9
-273.98
-279.11
-272.27
-255.71
-232.4
-204.26
-171.48
-133.5
-91
-47.32
-8.15
20.46
34.95
35.92
27.79
16.68
7.6
2.62
0.78
-0.52
-3.43
-8.39
-14.06
-18.43
-20.09
-19.15
-17.05
-15.66
-16.23
-18.7
-21.84
-24.02
-24.22
-22.54
-20.15
-18.55
-18.71
-20.65
-23.41
-25.75
-26.71
-26.09
-24.38
-22.41
-20.85
-19.91
-19.4
-18.86
-17.85
-16.2
-14
-11.61
-9.5
-8.03
-7.35
-7.37
-7.74
-8.11
-8.23
-8.13
-7.96
-7.89
-8
-8.19
-8.31
-8.29
-8.2
-8.23
-8.54
-9.11
-9.78
-10.35
-10.7
-10.91
-11.13
-11.52
-12.08
-12.63
-12.91
-12.72
-12
-10.85
-9.4
-7.77
-5.96
-3.92
-1.66
0.69
2.89
4.7
6
6.88
7.52
8.13
8.78
9.41
9.88
10.08
9.9
9.34
8.38
7.03
5.36
3.54
1.82
0.42
-0.49
-0.89
-0.86
-0.55
-0.08
0.43
0.88
1.18
1.26
1.13
0.87
0.59
0.34
0.14
-0.05
-0.24
-0.4
-0.51
-0.55
-0.58
-0.66
-0.83
-1.01
-1.08
-0.87
-0.34
0.4
1.17
1.73
1.98
1.95
1.83
1.83
2.12
2.71
3.47
4.23
4.78
5.02
4.91
4.48
3.79
2.88
1.8
0.61
-0.61
-1.78
-2.8
-3.63
-4.33
-4.99
-5.78
-6.72
-7.71
-8.49
-8.8
-8.53
-7.86
-7.19
-6.9
-7.17
-7.83
-8.51
-8.85
-8.69
-8.14
-7.4
-6.64
-5.89
-5.07
-4.13
-3.15
-2.27
-1.63
-1.26
-1.07
-0.92
-0.73
-0.47
-0.24
-0.09
-0.05
-0.1
-0.14
-0.1
0.05
0.35
0.76
1.23
1.67
1.95
1.99
1.71
1.1
0.21
-0.87
-2.02
-3.18
-4.27
-5.26
-6.04
-6.5
-6.53
-6.06
-5.18
-4.06
-2.93
-1.96
-1.23
-0.75
-0.48
-0.39
-0.47
-0.67
-0.91
-1.07
-1.05
-0.84
-0.53
-0.28
-0.24
-0.44
-0.82
-1.2
-1.44
-1.4
-1.08
-0.53
0.09
0.65
1.03
1.14
0.99
0.64
0.14
-0.48
-1.21
-2.02
-2.89
-3.66
-4.17
-4.23
-3.75
-2.78
-1.51
-0.2
0.93
1.77
2.34
2.76
3.1
3.37
3.5
3.39
2.98
2.36
1.7
1.22
1
0.99
0.99
0.79
0.28
-0.48
-1.28
-1.86
-2.05
-1.83
-1.35
-0.86
-0.59
-0.67
-1.12
-1.83
-2.66
-3.52
-4.34
-5.05
-5.56
-5.74
-5.45
-4.65
-3.45
-2.07
-0.81
0.13
0.7
1.03
1.32
1.75
2.46
3.41
4.54
5.68
6.65
7.26
7.4
7.03
6.24
5.2
4.09
3.05
2.12
1.25
0.33
-0.68
-1.77
-2.89
-3.96
-4.95
-5.89
-6.82
-7.78
-8.77
-9.74
-10.62
-11.35
-11.86
-12.12
-12.05
-11.53
-10.38
-8.49
-5.86
-2.67
0.7
3.77
6.12
7.55
8.11
8.04
7.61
7.04
6.4
5.67
4.8
3.82
2.82
1.95
1.27
0.76
0.31
-0.26
-1.05
-2.05
-3.12
-4.04
-4.63
-4.82
-4.68
-4.37
-4.03
-3.75
-3.52
-3.34
-3.24
-3.34
-3.65
-4.13
-4.58
-4.72
-4.31
-3.27
-1.69
0.22
2.21
4.05
5.6
6.8
7.64
8.15
8.33
8.19
7.74
7.05
6.23
5.35
4.51
3.7
2.89
2.03
1.14
0.31
-0.38
-0.82
-1.04
-1.14
-1.24
-1.43
-1.75
-2.16
-2.63
-3.15
-3.71
-4.37
-5.12
-5.95
-6.79
-7.56
-8.18
-8.5
-8.46
-7.98
-7.12
-5.98
-4.72
-3.48
-2.35
-1.36
-0.47
0.33
1.05
1.65
2.08
2.28
2.25
2.01
1.59
1.11
0.66
0.33
0.19
0.2
0.24
0.17
-0.13
-0.69
-1.39
-2.07
-2.59
-2.92
-3.15
-3.45
-3.95
-4.69
-5.59
-6.49
-7.23
-7.71
-7.91
-7.86
-7.59
-7.04
-6.1
-4.68
-2.81
-0.67
1.47
3.36
4.86
6
6.86
7.51
7.94
8.07
7.92
7.57
7.19
6.96
6.9
6.89
6.75
6.31
5.53
4.49
3.3
2.05
0.79
-0.43
-1.59
-2.62
-3.52
-4.35
-5.19
-6.15
-7.31
-8.6
-9.9
-10.98
-11.57
-11.49
-10.63
-9.07
-7.02
-4.77
-2.58
-0.69
0.83
1.96
2.72
3.12
3.21
2.97
2.42
1.64
0.7
-0.25
-1.06
-1.62
-1.9
-1.98
-2.01
-2.13
-2.39
-2.7
-2.91
-2.87
-2.59
-2.2
-1.94
-2.01
-2.53
-3.46
-4.65
-5.9
-7.03
-7.91
-8.44
-8.51
-8.03
-6.92
-5.21
-3.13
-0.98
0.85
2.13
2.84
3.15
3.29
3.36
3.28
2.84
1.86
0.41
-1.28
-2.83
-3.98
-4.68
-5.16
-5.74
-6.74
-8.29
-10.34
-12.7
-15.13
-17.38
-19.33
-20.99
-22.51
-24.23
-26.65
-30.26
-35.34
-41.7
-48.55
-54.5
-57.76
-56.63
-50
-37.79
-21.15
-2.13
16.77
33.45
46.56
55.73
61.22
63.54
63.06
59.9
54.12
45.89
35.67
24.15
12.17
0.66
-9.3
-16.46
-19.55
-17.65
-10.57
0.91
15.17
30.25
44.45
56.78
67.09
75.86
83.71
91.06
97.8
103.3
106.63
106.89
103.54
96.57
86.6
74.64
61.96
49.78
39.19
30.87
25.14
21.87
20.53
20.42
20.84
21.4
22.13
23.35
25.54
28.93
33.35
38.21
42.76
46.31
48.46
49.17
48.63
47.02
44.44
40.95
36.72
32.19
28.12
25.38
24.67
26.23
29.76
34.49
39.57
44.28
48.37
51.87
55.01
57.87
60.3
61.9
62.35
61.73
60.59
59.78
60.04
61.67
64.49
68.1
72.17
76.55
80.98
84.77
86.6
84.94
78.79
68.34
55.08
40.97
27.23
13.43
-2.39
-22.41
-47.28
-75.04
-101.39
-121.22
-130.66
-128.65
-117.36
-101.44
-86.73
-78.97
-82.72
-100.31
-130.89
-169.92
-209.62
-240.98
-256.58
-253.3
-233.26
-202.76
-169.41
-139.33
-115.5
-97.96
-85.27
-76.01
-69.45
-65.19
-62.47
-59.81
-55.46
-48.24
-38.28
-27.05
-16.8
-9.53
-6.24
-6.52
-8.84
-11.19
-11.88
-10.09
-6.07
-1.04
3.46
6.2
6.76
5.57
3.59
1.71
0.23
-1.21
-3.26
-6.28
-9.86
-12.87
-13.96
-12.3
-8.07
-2.38
3.31
7.96
11.51
14.83
19.1
25.21
33.28
42.63
52.16
60.73
67.29
71
71.13
67.23
59.34
48.16
34.87
20.78
6.79
-6.85
-20.44
-34.32
-48.47
-62.23
-74.6
-84.68
-92.16
-97.47
-101.45
-104.8
-107.6
-109.3
-109.04
-106.26
-101.11
-94.45
-87.46
-81.04
-75.36
-69.82
-63.4
-55.26
-45.13
-33.28
-20.21
-6.2
8.75
24.62
40.91
56.32
69.01
77.29
80.51
79.39
75.66
71.22
67.19
63.6
59.77
55.06
49.38
43.24
37.21
31.37
25.31
18.41
10.52
2.25
-5.32
-11.2
-15.11
-17.66
-19.91
-22.84
-26.89
-31.93
-37.66
-43.92
-50.88
-58.79
-67.65
-76.98
-85.99
-93.9
-100.42
-105.97
-111.51
-118.37
-127.92
-141.43
-159.67
-182.36
-207.67
-231.99
-250.51
-258.44
-252.67
-232.66
-200.56
-160.18
-115.67
-70.59
-27.53
11.77
46.23
75.36
99.41
119.52
137.44
154.96
173.2
192.21
210.95
227.78
241.21
250.44
255.51
256.87
254.76
248.79
238.12
222.24
201.85
179.33
158.16
141.76
132.03
128.83
130.26
133.84
137.48
140.08
141.39
141.59
140.89
139.46
137.39
134.66
130.88
125.26
116.71
104.46
88.72
71.05
54.09
40.71
32.91
31.15
34.16
39.59
44.96
48.74
50.76
52.11
54.34
58.41
63.85
68.46
68.89
61.86
45.55
20.32
-11.31
-45.74
-79.59
-110.7
-138.55
-163.87
-187.76
-210.96
-233.26
-253.57
-270.17
-281.37
-286.02
-283.87
-275.54
-262.29
-245.83
-228.3
-212.36
-201.11
-197.58
-203.6
-218.71
-239.5
-260.14
-274.05
-275.78
-262.55
-234.51
-193.93
-144
-88.03
-29.26
28.69
81.82
126.4
160.09
183
197.77
208.63
219.66
233.22
249.33
266.16
281.21
292.46
298.9
300.31
296.91
289.07
277.52
263.62
249.46
237.39
229.14
224.97
223.54
222.42
219.17
212.16
200.74
184.85
164.47
139.49
110.16
77.82
44.96
14.51
-11.34
-32.18
-49.25
-64.48
-79.04
-92.58
-103.62
-110.72
-113.72
-114.15
-114.54
-117.15
-122.92
-131.2
-140.23
-148.15
-153.76
-156.87
-157.97
-157.7
-156.37
-153.81
-149.62
-143.61
-136.04
-127.61
-119.02
-110.65
-102.46
-94.2
-85.81
-77.6
-70.12
-63.87
-58.9
-54.9
-51.39
-48.08
-44.99
-42.32
-40.11
-38.05
-35.45
-31.55
-25.84
-18.32
-9.4
0.27
10.07
19.61
28.65
37.11
44.87
51.77
57.69
62.65
66.96
71.19
76.04
82.15
89.88
99.21
109.71
120.6
130.9
139.61
145.95
149.54
150.47
149.24
146.45
142.54
137.56
131.13
122.48
110.68
94.73
73.61
46.36
12.34
-28.29
-74.05
-121.88
-167.42
-206.03
-234.12
-250.28
-255.61
-253.12
-246.44
-238.49
-230.57
-222.27
-211.94
-197.41
-176.87
-149.5
-116.16
-79.73
-44.84
-16.75
0.49
5.65
1.19
-7.46
-13.76
-12.43
-1.05
19.48
45.86
73.81
99.39
119.63
132.65
137.53
134.29
123.94
108.46
90.43
72.45
56.36
42.92
31.84
22.25
13.28
4.46
-4.09
-11.84
-18.02
-22.06
-23.81
-23.68
-22.58
-21.5
-21.15
-21.52
-21.89
-21.27
-18.84
-14.42
-8.51
-1.91
4.68
10.91
16.69
21.88
26.08
28.7
29.21
27.56
24.24
20.18
16.38
13.49
11.67
10.63
9.91
9.24
8.65
8.53
9.27
11.02
13.5
16.11
18.23
19.58
20.34
21.02
22.07
23.62
25.35
26.68
27.04
26.22
24.52
22.61
21.32
21.26
22.58
24.82
27.07
28.27
27.7
25.28
21.67
18.01
15.51
14.94
16.4
19.32
22.77
25.8
27.75
28.21
27
23.94
18.88
11.75
2.75
-7.68
-18.95
-30.62
-42.53
-54.69
-66.96
-78.75
-88.89
-96.11
-99.57
-99.44
-97.02
-94.37
-93.6
-96.25
-102.85
-112.84
-124.64
-135.73
-142.54
-140.58
-125.27
-93.34
-44.81
15.71
79.03
133.36
167.6
174.88
154.62
112.62
59.35
7.12
-32.75
-52.24
-48.31
-23.48
14.48
54.41
84.77
97.17
89.17
65.25
35.32
11.22
2.61
13.61
41.77
79.55
117.53
147.83
166.69
174.81
175.91
174.22
172.36
170.68
167.98
163.04
155.55
146.33
136.4
126.13
114.97
101.94
86.6
69.77
53.37
39.6
29.86
23.95
20.13
15.62
7.59
-5.99
-25.68
-50.26
-76.84
-101.58
-120.76
-131.93
-134.63
-130.28
-121.21
-109.54
-96.34
-81.73
-65.62
-48.53
-32.05
-18.32
-9.28
-5.72
-7.05
-11.58
-17.17
-21.97
-24.96
-25.93
-25.44
-24.42
-23.82
-24.33
-26.23
-29.36
-33.31
-37.68
-42.29
-47.21
-52.62
-58.52
-64.57
-70.03
-73.97
-75.69
-74.9
-71.86
-67.11
-61.34
-55.19
-49.37
-44.72
-42.1
-42.21
-45.15
-50.23
-56.06
-61.06
-64.07
-64.77
-63.63
-61.57
-59.3
-56.98
-54.16
-50.17
-44.57
-37.54
-29.81
-22.41
-16.17
-11.45
-8.09
-5.61
-3.59
-1.82
-0.33
0.82
1.73
2.87
4.97
8.7
14.13
20.33
25.32
26.64
22.31
11.8
-3.51
-20.78
-36.66
-48.42
-54.62
-55.16
-50.9
-43.26
-33.95
-24.75
-17.25
-12.41
-10.13
-9.21
-7.87
-4.63
0.88
7.73
14.23
18.89
21.14
21.49
20.99
20.42
19.87
18.81
16.72
13.64
10.47
8.53
8.86
11.61
16.07
21.24
26.48
31.78
37.38
43.01
47.6
49.53
47.52
41.54
33.01
24.17
16.95
12.03
8.7
5.49
1.09
-5.07
-12.8
-21.52
-30.66
-39.65
-47.7
-53.6
-55.89
-53.47
-46.11
-34.7
-20.87
-6.29
7.88
21.12
33.19
43.73
52.24
58.47
63.02
67.47
73.9
83.9
97.52
112.98
127.19
136.92
139.81
134.91
122.6
104.3
82.2
59.25
38.79
24.01
16.73
16.49
20.34
23.83
22.86
15.49
2.86
-11.37
-22.68
-27.68
-25.32
-17.02
-5.76
5.38
14.37
20.74
25.37
29.61
34.4
39.77
44.88
48.65
50.55
51.07
51.58
53.56
57.74
63.65
69.85
74.78
77.57
78.47
78.63
79.44
81.96
86.6
93.24
101.3
109.95
118.09
124.4
127.56
126.42
120.13
108.13
90.07
66.05
37.03
5.16
-26.4
-54.26
-76.12
-91.79
-103.22
-113.51
-125.27
-139.3
-154.4
-168.13
-178.23
-183.56
-184.4
-181.87
-177.22
-171.32
-164.65
-157.41
-149.69
-141.41
-132.27
-121.9
-110.1
-97.23
-84.25
-72.39
-62.65
-55.43
-50.41
-46.94
-44.33
-42.11
-39.96
-37.56
-34.58
-30.75
-26.17
-21.29
-16.81
-13.34
-11.05
-9.65
-8.43
-6.6
-3.51
1.13
7.29
14.54
22.27
29.79
36.5
42.1
46.73
50.95
55.6
61.35
68.43
76.46
84.54
91.63
96.89
99.94
100.81
99.72
96.77
91.82
84.65
75.17
63.71
50.96
37.61
24.02
9.95
-5.16
-21.7
-39.29
-56.67
-71.99
-83.57
-90.55
-93.27
-92.94
-91.12
-89.14
-87.82
-87.61
-88.76
-91.47
-95.83
-101.63
-108.18
-114.4
-119.11
-121.3
-120.37
-116.12
-108.65
-98.25
-85.46
-71.14
-56.54
-43.08
-32.03
-24.03
-18.84
-15.42
-12.27
-8.08
-2.06
5.89
15.38
25.92
37.08
48.53
59.95
71.04
81.61
91.7
101.61
111.75
122.25
132.68
141.89
148.32
150.47
147.53
139.71
128.16
114.49
100.19
86.12
72.45
58.93
45.34
31.77
18.61
6.23
-5.33
-16.36
-27.21
-37.82
-47.56
-55.44
-60.61
-62.97
-63.18
-62.21
-60.59
-58
-53.39
-45.74
-34.84
-21.71
-8.25
3.59
12.6
18.62
22.19
23.84
23.67
21.3
16.39
9.15
0.62
-7.62
-14.06
-17.84
-19.04
-18.46
-17.22
-16.2
-15.76
-15.73
-15.53
-14.46
-11.92
-7.56
-1.35
6.31
14.62
22.5
28.85
32.79
33.91
32.38
28.93
24.84
21.93
22.42
28.48
41.42
60.9
84.46
108.06
127.3
138.98
142.09
137.66
127.82
114.55
98.88
81.14
61.54
40.88
20.59
2.21
-13.28
-25.85
-36.19
-45.16
-53.23
-60.41
-66.46
-71.21
-74.8
-77.64
-80.11
-82.45
-84.63
-86.54
-88.1
-89.33
-90.31
-91.01
-91.31
-91.05
-90.3
-89.36
-88.68
-88.39
-88.13
-87.13
-84.75
-81.31
-78.29
-78.07
-82.69
-92.48
-105.14
-116.04
-119.8
-112.34
-92.37
-61.62
-23.69
17.57
59.12
98.82
134.66
164.18
184.53
193.53
190.74
178.03
159.14
138.43
119.62
105
95.41
90.54
89.42
90.61
92.56
93.92
93.92
92.54
90.35
88.15
86.64
86.22
87.04
89.11
92.18
95.61
98.29
98.9
96.39
90.56
82.31
73.4
65.66
60.23
57.07
55.03
52.52
48.21
41.53
32.61
21.94
9.98
-2.93
-16.34
-29.44
-40.93
-49.42
-53.94
-54.31
-51.17
-45.54
-38.37
-30.27
-21.63
-12.82
-4.38
3.19
9.82
16.06
22.94
31.37
41.43
52
61
65.98
64.99
57.11
42.61
22.74
-0.59
-25.11
-48.43
-68.22
-82.8
-91.49
-94.97
-95.07
-94.07
-93.88
-95.33
-98.11
-101.19
-103.59
-104.83
-105.12
-104.92
-104.52
-103.77
-102.26
-99.73
-96.33
-92.63
-89.36
-86.95
-85.3
-83.8
-81.67
-78.34
-73.74
-68.31
-62.81
-57.96
-54.19
-51.54
-49.82
-48.76
-48.21
-48.06
-48.12
-47.86
-46.39
-42.72
-36.13
-26.53
-14.52
-1.15
12.51
25.54
37.27
47.05
54.11
57.55
56.67
51.43
42.61
31.65
20.19
9.29
-0.86
-10.87
-21.58
-33.36
-45.73
-57.59
-67.61
-74.79
-78.63
-78.98
-75.85
-69.47
-60.55
-50.59
-41.72
-36.1
-34.97
-37.97
-43.13
-47.64
-49.05
-46.14
-39.17
-29.55
-19.17
-9.88
-3.17
0.01
-0.55
-4.06
-8.65
-11.65
-10.42
-3.22
9.99
27.5
46.46
63.91
77.78
87.27
92.69
94.9
94.71
92.79
89.89
87.22
86.22
87.48
89.38
87.63
76.53
51.95
14.45
-29.53
-69.37
-94.51
-98.89
-83.1
-53.33
-17.86
16.58
46.68
71.8
91.98
106.36
113.19
111.32
101.69
87.76
74.34
65.72
63.87
67.95
74.97
81.27
84.2
82.88
78.25
72.19
66.47
62.06
59.09
57.27
56.39
56.45
57.5
59.3
61.2
62.42
62.55
61.83
61.12
61.39
63.17
66.16
69.36
71.62
72.09
70.68
68.05
65.39
64.13
65.74
71.27
81.03
94.11
108.16
119.63
124.61
119.89
104.03
77.93
44.59
8.21
-27.11
-58.46
-84.55
-105.42
-121.69
-133.84
-141.85
-145.41
-144.42
-139.46
-131.92
-123.82
-117.26
-113.84
-114.22
-117.89
-123.36
-128.63
-131.76
-131.45
-127.23
-119.29
-108.18
-94.6
-79.35
-63.63
-48.86
-36.43
-27.12
-20.76
-16.33
-12.74
-9.64
-7.79
-8.67
-13.53
-22.48
-34.34
-47.08
-58.68
-67.91
-74.4
-78.47
-80.54
-80.97
-79.85
-77.17
-72.8
-66.69
-58.96
-50.09
-40.93
-32.64
-26.32
-22.56
-21.27
-21.77
-23.32
-25.49
-28.32
-32.09
-36.9
-42.41
-47.93
-52.78
-56.62
-59.45
-61.39
-62.29
-61.67
-58.81
-53.22
-45.03
-35.09
-24.78
-15.37
-7.45
-0.57
6.43
14.83
25.07
36.45
47.35
56.23
62.56
67.29
72.47
80
90.36
102.01
111.88
116.77
115.11
108.11
99.63
94.59
96.83
107.15
122.91
139.13
150.68
154.42
150.08
139.73
126.32
112.1
98.03
84.01
69.72
55.38
41.88
30.4
21.81
16.12
12.39
8.87
3.72
-4.14
-14.25
-24.62
-32.59
-36.36
-36.26
-34.69
-34.69
-37.93
-43.41
-47.98
-48.11
-41.96
-30.23
-15.64
-1.39
10.1
17.52
20.12
17.26
8.61
-5.14
-21.66
-37.33
-48.55
-53.59
-53.43
-51.41
-51.45
-55.97
-64.76
-75.23
-83.96
-88.52
-88.74
-86.49
-84.38
-83.99
-85.04
-85.74
-84.16
-79.7
-73.59
-68.28
-65.92
-67.22
-71.15
-75.79
-79.41
-81.24
-81.38
-80.21
-77.63
-73.01
-65.54
-54.96
-41.87
-27.56
-13.4
-0.14
12.34
24.86
38.3
53.01
68.39
83.12
95.67
104.99
110.95
114.3
116.18
117.42
118.01
117.1
113.44
106.12
95.15
81.54
66.9
52.82
40.24
29.25
18.99
8.02
-5.18
-21.64
-41.21
-62.34
-82.25
-97.85
-106.84
-108.61
-104.39
-96.58
-87.63
-79.16
-71.64
-64.79
-58.15
-51.54
-45.02
-38.6
-32.03
-24.79
-16.34
-6.33
5.23
18.01
31.45
44.82
57.23
67.7
75.35
79.58
80.26
77.68
72.45
65.28
56.93
48.03
38.99
29.88
20.42
10.22
-0.92
-12.77
-24.59
-35.4
-44.34
-50.97
-55.34
-57.86
-59.02
-59.14
-58.4
-56.96
-55.1
-53.25
-51.87
-51.12
-50.79
-50.31
-49.15
-47.25
-45.25
-44.3
-45.37
-48.66
-53.22
-57.41
-59.86
-60.38
-60.2
-61.51
-66.41
-76.12
-90.68
-109.2
-130.26
-152.03
-172.23
-188.03
-196.37
-194.58
-181.13
-156.02
-120.72
-77.82
-30.36
18.7
66.69
111.4
151.1
184.66
211.64
232.44
248.3
260.98
272.22
283.04
293.33
301.94
307.27
308.24
304.87
298.18
289.52
279.5
267.6
252.5
233.11
209.53
183.39
157.32
133.9
114.85
100.62
90.65
83.74
78.24
72.08
62.85
48.1
26.2
-2.78
-36.57
-71.11
-101.74
-124.72
-138.27
-142.93
-140.9
-134.99
-127.63
-120.35
-113.82
-108.09
-103.05
-98.56
-94.45
-90.52
-86.4
-81.76
-76.49
-70.94
-65.86
-62.17
-60.49
-60.83
-62.5
-64.39
-65.43
-64.98
-63.05
-60.1
-56.79
-53.65
-50.95
-48.73
-46.94
-45.51
-44.35
-43.44
-42.65
-41.84
-40.88
-39.83
-39.04
-39.15
-40.82
-44.41
-49.67
-55.71
-61.3
-65.32
-67.25
-67.33
-66.36
-65.49
-65.93
-68.97
-76.03
-88.54
-107.45
-132.41
-161.13
-189.4
-211.94
-223.96
-222.54
-207.27
-179.78
-142.73
-98.88
-51.03
-2.56
42.15
78.11
101.23
110.05
106.84
97.1
87.49
83.26
86.36
95.22
106.13
115.29
120.48
121.68
120.32
118.13
115.91
113.32
109.28
102.84
93.95
83.58
73.21
64.08
56.57
50.19
44.06
37.55
30.68
24.08
18.63
14.86
12.69
11.42
10.14
8.07
4.91
0.87
-3.5
-7.6
-10.96
-13.39
-14.72
-14.69
-12.77
-8.28
-0.73
9.83
22.55
35.91
48.15
57.81
64.17
67.28
67.81
66.61
64.41
61.62
58.45
55.02
51.43
47.84
44.39
41.18
38.21
35.4
32.61
29.67
26.52
23.21
19.98
17.18
15.08
13.62
12.39
10.79
8.33
5.07
1.67
-0.88
-1.93
-1.6
-0.94
-1.46
-4.41
-10.06
-17.51
-24.93
-30.15
-31.29
-27.25
-17.82
-3.79
13.21
30.87
46.56
57.91
63.36
62.56
56.35
46.41
34.64
22.71
11.86
2.92
-3.5
-6.86
-6.71
-2.76
4.87
15.48
27.72
39.83
50.05
57.22
61.26
63.22
64.87
67.81
72.7
78.78
84.11
86.36
83.82
75.99
63.61
48.07
30.69
12.17
-7.42
-28.36
-50.72
-74.06
-97.3
-119.05
-137.98
-153.07
-163.76
-169.83
-171.4
-168.87
-162.94
-154.48
-144.26
-132.65
-119.45
-104.06
-86.05
-65.81
-44.86
-25.45
-9.78
1.03
7.24
10.17
11.36
11.73
11.37
9.92
7.24
3.67
-0.06
-3.55
-7.06
-11.53
-17.89
-26.28
-35.65
-44.13
-49.89
-52.01
-50.9
-47.99
-44.96
-42.95
-42.19
-42.14
-42.02
-41.32
-40.08
-38.8
-38.17
-38.73
-40.79
-44.31
-49.04
-54.6
-60.51
-66.29
-71.5
-75.91
-79.51
-82.44
-84.78
-86.44
-87.12
-86.42
-84.11
-80.07
-74.08
-65.65
-53.96
-38.29
-18.68
3.54
25.91
45.48
59.94
68.38
71.46
70.84
68.36
65.49
63.19
62.23
63.29
66.91
72.98
80.49
87.64
92.5
93.86
91.72
87.3
82.48
78.99
77.93
79.68
84.13
90.94
99.7
109.83
120.4
130.09
137.47
141.42
141.65
138.83
134.44
130.15
127.23
126.03
125.91
125.55
123.68
119.55
113.31
105.93
98.83
93.35
90.29
89.68
90.64
91.5
89.93
83.5
70.38
50.2
24.49
-3.49
-29.65
-50.35
-63.57
-69.39
-69.59
-66.71
-63.08
-60.21
-58.62
-58.01
-57.54
-56.03
-52.27
-45.29
-34.76
-21.1
-5.35
11.35
28.26
45.15
62.01
78.61
94.2
107.63
117.85
124.41
127.5
127.66
125.45
121.4
116.32
111.69
109.62
112.07
119.77
131.21
142.69
149.29
146.5
131.59
104.17
66.09
20.79
-27.35
-73.67
-113.73
-144.05
-162.72
-169.87
-167.77
-160.29
-152.02
-146.95
-147.32
-153.02
-161.84
-170.55
-176.27
-177.6
-174.95
-169.95
-164.43
-159.65
-156.1
-153.97
-153.46
-154.5
-156.08
-155.71
-149.91
-135.73
-112.46
-82.52
-50.8
-22.82
-2.68
8.06
10.35
6.64
-0.16
-7.45
-13.16
-15.88
-14.98
-10.9
-5.04
0.82
5.27
7.93
9.51
11.24
14.1
18.32
23.43
28.56
32.92
36
37.57
37.61
36.32
34.11
31.7
29.9
29.35
30.17
31.88
33.57
34.27
33.38
30.95
27.55
23.99
20.88
18.42
16.32
14.03
10.97
6.79
1.45
-4.71
-11.19
-17.34
-22.62
-26.59
-28.95
-29.43
-27.84
-24.1
-18.44
-11.49
-4.14
2.6
7.94
11.4
12.7
11.57
7.66
0.74
-8.88
-19.95
-30.37
-37.88
-40.94
-39.53
-35.13
-30.08
-26.45
-25.23
-26.16
-28.31
-30.94
-34.05
-38.14
-43.53
-49.61
-54.62
-56.45
-53.78
-46.97
-38.13
-30.21
-25.72
-25.69
-29.43
-35.13
-40.7
-44.51
-45.67
-43.9
-39.26
-32.13
-23.21
-13.48
-4.1
3.85
9.7
13.22
14.43
13.17
8.74
-0.04
-14.29
-34.13
-57.9
-81.87
-101.03
-110.67
-107.87
-92.55
-67.33
-36.57
-4.92
23.69
46.59
62.41
70.95
73.19
71.26
68.15
66.86
69.39
76.01
85.06
93.61
98.59
97.91
91.06
79.16
64.46
49.61
36.99
28.13
23.32
21.63
21.31
20.45
17.83
13.47
8.7
5.68
6.42
11.95
21.84
34.35
46.99
57.35
63.79
65.84
64.18
60.34
56.29
53.83
54.15
57.49
63.03
69.04
73.42
74.33
70.91
63.58
53.88
43.68
34.31
25.91
17.5
7.66
-4.5
-18.59
