0
0
0
0
0
0
0
0
0
0
0
0.01
0.01
0
-0.03
-0.05
-0.05
0
0.13
0.36
0.66
1.01
1.37
1.72
2.06
2.4
2.79
3.24
3.8
4.42
5.06
5.66
6.2
6.68
7.15
7.68
8.31
9.14
10.09
11.04
11.88
12.56
13.14
13.76
14.65
15.96
17.91
20.32
22.9
25.38
27.58
29.57
31.68
34.32
37.81
42.54
48.15
54.1
59.83
64.97
69.58
74.14
79.34
85.71
93.76
103
112.62
121.73
129.77
136.75
143.3
150.75
157.77
166.64
177.95
191.79
206.97
220.57
228.25
225.36
208.53
176.87
132.76
80.05
23.07
-34.94
-92.44
-149.16
-205.23
-260.37
-313.74
-363.87
-409.83
-450.91
-486.5
-515.74
-537.23
-549.22
-549.96
-538.37
-514.21
-478.67
-433.88
-382.45
-327.02
-269.84
-212.63
-156.66
-102.95
-52.37
-5.9
35.58
71.43
101.35
125.5
144.38
158.69
169.15
176.37
180.75
182.57
182.07
179.51
175.23
169.65
163.18
156.15
148.81
141.3
133.69
126.02
118.33
110.69
103.16
95.8
88.68
81.83
75.25
68.95
62.95
57.25
51.86
46.78
42.03
37.59
33.45
29.61
26.07
22.81
19.83
17.11
14.67
12.48
10.54
8.83
7.35
6.07
4.97
4.05
3.27
2.62
2.09
1.65
1.3
1.01
0.79
0.61
0.48
0.37
0.3
0.24
0.21
0.19
0.18
0.19
0.21
0.23
0.26
0.29
0.33
0.37
0.41
0.45
0.5
0.55
0.59
0.64
0.7
0.76
0.82
0.88
0.96
1.04
1.13
1.24
1.35
1.48
1.63
1.8
1.98
2.19
2.41
2.67
2.95
3.26
3.59
3.96
4.37
4.8
5.27
5.78
6.32
6.91
7.53
8.2
8.91
9.65
10.45
11.28
12.16
13.08
14.06
15.11
16.21
17.37
18.58
19.82
21.03
22.15
23.09
23.74
23.98
23.69
22.78
21.18
18.88
15.9
12.32
8.28
3.95
-0.46
-4.73
-8.67
-12.1
-14.89
-16.93
-18.21
-18.7
-18.49
-17.65
-16.28
-14.49
-12.38
-10.09
-7.71
-5.35
-3.04
-0.9
1.06
2.84
4.46
5.96
7.37
8.69
9.99
11.34
12.71
14.11
15.63
17.31
19.21
21.32
23.64
26.18
29.03
32.01
35.13
38.46
42.08
46.01
50.17
54.4
58.61
62.83
66.76
70.41
74.02
77.77
81.75
85.81
89.62
92.9
95.59
97.22
97.85
97.72
96.99
95.37
91.96
85.19
72.74
57.02
38.73
18.75
-1.95
-22.53
-42.57
-62.09
-81.55
-101.55
-122.73
-146.38
-173.14
-202.69
-233.18
-261.3
-282.84
-293.96
-292.6
-279.1
-256.71
-229.51
-201.19
-174.02
-148.77
-125.4
-103.81
-84.26
-67.13
-52.75
-40.63
-29.72
-18.89
-7.59
3.97
15.04
24.71
32.4
37.88
41.36
43.26
44.01
43.95
43.3
42.22
40.77
38.97
36.74
34.13
31.49
29.33
28.27
28.65
30.4
32.94
35.48
37.34
38.19
38.19
37.74
37.27
36.88
36.4
35.42
33.67
31.12
28.06
24.94
22.13
19.79
17.79
15.84
13.6
10.81
7.36
3.25
-1.4
-6.39
-11.45
-16.24
-20.37
-23.53
-25.53
-26.34
-26.11
-25.18
-23.97
-22.98
-22.63
-23.15
-24.47
-26.19
-27.64
-28.11
-26.98
-23.92
-18.95
-12.39
-4.86
2.89
10.11
16.21
20.9
24.19
26.39
27.87
28.98
29.84
30.49
30.87
30.97
30.84
30.6
30.37
30.23
30.16
30.06
29.81
29.28
28.4
27.19
25.7
23.97
21.88
19.3
16.06
12.18
7.86
3.45
-0.74
-4.67
-8.5
-12.54
-16.99
-21.8
-26.68
-31.19
-35
-37.94
-40.02
-41.26
-41.64
-41.04
-39.34
-36.48
-32.57
-27.83
-22.49
-16.69
-10.38
-3.35
4.59
13.43
22.78
31.84
39.53
44.78
47.01
46.34
43.66
40.38
37.86
36.93
37.5
38.78
39.73
39.62
38.47
37.02
36.29
36.96
38.86
40.9
41.47
39.06
32.9
23.28
11.5
-0.55
-10.92
-18.04
-21.04
-19.76
-14.69
-6.81
2.64
12.41
21.34
28.54
33.37
35.54
34.96
31.82
26.52
19.74
12.32
5.19
-0.84
-5.24
-7.84
-8.85
-8.7
-7.88
-6.85
-5.93
-5.32
-5.06
-5.04
-5.06
-4.87
-4.27
-3.24
-2.01
-0.85
0.02
0.71
1.54
2.9
4.93
7.32
9.42
10.5
10.16
8.46
5.93
3.22
0.88
-0.9
-2.23
-3.37
-4.58
-5.96
-7.34
-8.32
-8.29
-6.71
-3.36
1.38
6.57
11.09
14
15.01
14.52
13.36
12.25
11.45
10.55
8.64
4.69
-2.01
-11.55
-23.17
-35.36
-46.15
-53.62
-56.47
-54.5
-48.6
-40.51
-32.12
-24.97
-19.91
-17.19
-16.66
-18.03
-20.93
-24.83
-28.99
-32.56
-34.74
-35.04
-33.38
-30.02
-25.45
-20.23
-14.92
-9.97
-5.7
-2.15
0.94
4.03
7.5
11.36
15.09
17.79
18.59
17.1
13.64
9.22
5.04
2.09
0.72
0.64
1.08
1.28
0.78
-0.36
-1.61
-2.27
-1.89
-0.44
1.59
3.41
4.23
3.63
1.62
-1.42
-4.9
-8.28
-11.14
-13.23
-14.47
-14.94
-14.82
-14.4
-13.88
-13.35
-12.69
-11.7
-10.17
-7.98
-5.16
-1.82
1.84
5.56
9.01
11.8
13.69
14.68
15.11
15.47
16.21
17.44
18.96
20.32
21.14
21.24
20.63
19.41
17.63
15.29
12.46
9.4
6.46
3.93
1.87
-0.12
-2.62
-6.17
-10.91
-16.38
-21.66
-25.69
-27.62
-27.19
-24.76
-21.15
-17.31
-13.94
-11.24
-9.01
-6.76
-4.07
-0.83
2.7
5.94
8.26
9.13
8.41
6.41
3.83
1.54
0.21
0.13
1.08
2.42
3.41
3.5
2.58
0.91
-1.04
-2.9
-4.58
-6.25
-8.29
-10.99
-14.45
-18.54
-22.92
-27.18
-30.93
-33.73
-35.16
-34.87
-32.72
-28.86
-23.81
-18.37
-13.38
-9.44
-6.72
-4.89
-3.31
-1.32
1.48
5.06
9.02
12.84
16.1
18.73
21
23.34
26.11
29.33
32.65
35.47
37.2
37.52
36.33
33.72
29.77
24.37
17.46
9.19
0.22
-8.26
-14.89
-18.72
-19.65
-18.5
-16.62
-15.27
-14.95
-15.27
-15.32
-14.24
-11.8
-8.44
-4.98
-1.93
0.81
3.97
8.42
14.5
21.6
28.27
32.68
33.41
29.98
22.99
13.83
4.09
-4.83
-11.81
-15.78
-15.7
-10.74
-0.97
12.09
25.45
35.45
39.14
35.56
26.23
14.46
3.96
-2.72
-5.09
-4.52
-3.35
-3.69
-6.55
-11.69
-17.94
-23.81
-28.14
-30.37
-30.53
-29.08
-26.49
-23.09
-19.04
-14.49
-9.8
-5.56
-2.4
-0.74
-0.54
-1.21
-1.86
-1.59
0.14
3.38
7.71
12.44
16.93
20.74
23.71
25.85
27.22
27.84
27.63
26.47
24.22
20.83
16.39
11.2
5.77
0.69
-3.54
-6.68
-8.89
-10.55
-12.08
-13.65
-15.01
-15.68
-15.11
-13.06
-9.69
-5.51
-1.09
3.04
6.6
9.45
11.56
12.91
13.56
13.64
13.41
13.22
13.38
14
15
16.14
17.11
17.69
17.84
17.62
17.24
16.83
16.43
15.99
15.38
14.56
13.63
12.87
12.59
12.99
14.02
15.33
16.46
17.11
17.34
17.69
18.99
22
27.07
33.94
41.85
49.83
57.1
63.29
68.44
72.85
76.9
81
85.48
90.6
96.34
102.33
107.81
111.95
114.24
114.89
114.85
115.25
116.9
119.87
123.69
127.84
132.4
138.04
145.27
153.5
160.03
160
147.58
117.97
69.39
4.02
-72.6
-153.26
-230.68
-298.88
-353.67
-392.65
-415.49
-424.02
-422.12
-414.94
-407.14
-401.14
-396.13
-388.81
-375.54
-354.79
-328.35
-300.52
-275.39
-254.28
-234.56
-211.18
-179.66
-139.34
-94.84
-54.44
-26.32
-14.46
-16.6
-25.44
-32.38
-31.8
-23.54
-12.47
-5.58
-8.55
-23.36
-47.64
-76.06
-102.46
-121.81
-131.59
-132.16
-126.18
-117.65
-110.65
-108.12
-110.99
-118.04
-126.27
-131.74
-130.83
-121.3
-103.03
-77.76
-48.29
-17.02
15.05
48.29
83.19
118.58
150.19
170.98
173.19
151.43
105.61
42.05
-27.95
-91.66
-138.82
-164.64
-170.32
-161.2
-143.83
-123.39
-102.5
-81.86
-61.82
-43.41
-28.38
-18.16
-12.67
-9.92
-6.76
-0.38
10.38
24.63
40.03
54.05
65.28
74
81.95
91.42
104.27
121.08
141.1
162.71
184.35
205.46
226.79
250.07
276.93
307.5
339.43
367.82
386.4
389.72
375.38
345.12
304.53
261.25
222.67
194.07
177.83
173.52
178.5
188.46
197.94
201.1
193.03
171.39
137.55
96.5
55.26
20.39
-4.31
-18.61
-25.16
-27.94
-30.65
-35.81
-44.5
-56.4
-69.76
-81.69
-88.75
-88.11
-79.01
-63.39
-45.43
-29.99
-20.78
-19.26
-24.75
-35.45
-49.38
-64.86
-80.33
-94.13
-104.63
-110.95
-113.67
-114.89
-117.51
-123.76
-133.74
-144.86
-152.57
-151.71
-138.28
-110.74
-70.45
-21.54
29.89
76.62
111.64
129.7
128.75
110.88
82.14
51.08
26.34
14.23
17.37
34.62
62.43
96.72
134.02
172.16
210.11
247.71
285.31
323.57
362.97
403.1
441.97
475.6
498.73
506.06
493.95
461.79
412.31
350.91
284.17
218.11
157.02
102.85
55.39
12.89
-27.22
-67.73
-111.21
-159.19
-211.15
-263.64
-310
-341.66
-350.88
-333.48
-290.71
-228.93
-156.97
-82.67
-10.21
60.27
130.69
202.05
272.32
336.28
387.45
420.79
434.77
431.64
416.13
393.33
366.81
337.92
306.29
271.03
231.81
189.35
145.22
101.36
59.57
21.27
-12.49
-41
-63.75
-80.35
-90.57
-94.48
-92.49
-85.47
-74.77
-62.09
-49.4
-38.72
-31.94
-30.59
-35.51
-46.4
-61.72
-78.9
-95.05
-107.96
-116.76
-122
-125
-126.91
-128.13
-128.34
-127.16
-124.81
-122.36
-121.42
-123.55
-129.73
-140.21
-154.32
-170.45
-185.79
-196.56
-198.91
-190.28
-170.81
-143.69
-114.29
-88.17
-69.16
-58.3
-54.22
-54.34
-56.34
-58.87
-61.55
-64.34
-67.05
-69.16
-70.06
-69.28
-66.64
-62.29
-56.62
-50.12
-43.24
-36.11
-28.49
-19.75
-9.09
4.14
20.06
37.86
55.68
70.48
78.46
75.68
59.24
28.5
-13.67
-60.66
-103.14
-131.36
-138.31
-122.4
-88.57
-46.71
-8.09
18.86
31.3
32.23
28.21
25.91
29.44
39.33
53.18
67.19
77.28
79.58
70.41
46.67
6.72
-48.11
-112.95
-180.05
-240.85
-288.73
-321.31
-341.38
-355.93
-373.69
-401.42
-440.99
-488.1
-533.55
-566.35
-577.58
-563.08
-524.01
-465.46
-394.05
-316.14
-237.1
-161.51
-93.68
-37.32
5.5
35.47
56.16
72.76
90.1
110.68
134.06
157.42
177.26
191.13
198.53
200.85
200.59
200.25
201.64
205.49
211.65
219.33
227.36
234.39
239.17
240.76
238.91
234.16
227.64
220.67
214.23
208.62
203.46
197.99
191.56
184.05
176.15
168.92
163.68
161.2
161.78
165.05
170.49
177.49
185.44
193.26
199.3
201.75
199.4
192.43
182.38
171.61
162.1
154.8
149.68
146.32
144.45
143.85
143.68
141.8
134.88
119.53
93.97
59.34
19.52
-20.26
-55.71
-85.04
-109.41
-131.95
-156.07
-184.27
-217.45
-255.52
-298.52
-347.46
-403.8
-467.64
-535.55
-599.6
-648.73
-672.4
-664.74
-626.96
-566.63
-494.33
-419.1
-345.58
-273.52
-200.03
-122.46
-40.5
43.42
125.19
200.58
266.56
321.84
366.91
403.53
433.99
460.03
482.21
499.64
510.4
512.35
503.88
484.25
453.33
411.28
358.33
295
222.3
141.96
56.32
-31.58
-117.68
-196.8
-263.19
-312.23
-342.51
-357.03
-362.62
-367.19
-376.27
-390.74
-407.12
-420.22
-426.46
-425.76
-420.83
-414.58
-407.49
-396.76
-377.71
-346.53
-302.59
-249.22
-192.59
-139.52
-95.5
-63.37
-43.41
-34.02
-32.77
-37.06
-44.47
-52.78
-59.8
-63.63
-62.9
-57.28
-47.71
-36.22
-25.23
-16.83
-12.12
-11.19
-13.34
-17.5
-22.41
-26.62
-28.51
-26.49
-19.59
-8.01
6.83
22.62
36.98
48.16
55.39
58.91
59.74
59.31
59.39
61.77
67.96
78.59
92.87
108.49
122.23
131.05
132.97
127.65
116.17
100.26
81.53
60.97
39.18
17.17
-2.51
-15.44
-16.04
0.16
33.94
81.12
133.3
180.79
216.45
238.21
249.11
254.61
259
263.03
264.36
260.01
249.18
234.37
220.13
210.76
208.15
211.27
217.36
223.88
229.69
235.04
240.56
246.05
250.02
250.24
244.72
232.43
213.38
188.08
157.06
120.9
80.48
37.27
-6.25
-46.9
-81.4
-107.11
-122.82
-128.98
-127.45
-121.1
-113.2
-106.67
-103.66
-104.97
-109.92
-116.52
-122.07
-124.1
-121.21
-113.47
-102.1
-88.93
-75.58
-62.94
-51.05
-39.42
-27.57
-15.43
-3.39
7.89
17.72
25.67
31.56
35.42
37.39
37.72
36.74
34.83
32.39
29.77
27.11
24.3
20.96
16.55
10.67
3.29
-5.1
-13.57
-21.04
-26.66
-30.1
-31.65
-32.06
-32.18
-32.69
-33.95
-36
-38.8
-42.24
-46.18
-50.31
-54.19
-57.17
-58.67
-58.31
-56.16
-52.65
-48.55
-44.71
-41.81
-40.17
-39.57
-39.38
-38.74
-36.94
-33.68
-29.18
-24.05
-18.99
-14.5
-10.79
-7.85
-5.65
-4.22
-3.61
-3.73
-4.2
-4.47
-4.09
-2.96
-1.46
-0.27
0.04
-0.68
-2.16
-3.91
-5.55
-7
-8.45
-10.05
-11.78
-13.44
-14.92
-16.37
-18.2
-20.79
-24.06
-27.27
-29.09
-28.16
-23.64
-15.66
-5.32
5.57
15.1
21.76
24.84
24.42
21.22
16.28
10.67
5.36
1.15
-1.38
-1.95
-0.7
1.89
5.19
8.76
12.56
16.85
21.78
26.83
30.54
30.78
25.42
13.15
-6.08
-31.09
-59.99
-90.6
-120.68
-147.81
-169.34
-182.89
-187.29
-183.37
-174.11
-163.75
-156.07
-152.87
-153.2
-153.95
-151.26
-142.31
-126.18
-104.25
-79.62
-56.33
-38.23
-27.88
-25.64
-29.25
-34.6
-37.08
-33.21
-21.7
-3.37
19.96
46.4
74.52
103.23
130.95
155.2
173.16
182.87
184.4
180.06
173.58
168.42
166.34
166.95
168.37
168.51
166.09
160.82
152.62
141.01
125.02
104.3
80.15
55.62
34.47
19.12
9.52
3.29
-2.55
-9.68
-18
-26.47
-34.39
-42.13
-50.5
-59.08
-65.35
-65.71
-57.7
-42.35
-24.37
-10.2
-4.81
-9.39
-21.14
-35.21
-47.43
-56
-61.7
-66.58
-72.43
-80.03
-89.29
-99.66
-110
-118.76
-123.69
-122.8
-115.26
-102.08
-85.45
-67.49
-48.98
-29.24
-7.73
14.38
33.43
44.42
43.34
29.59
6.33
-20.9
-46.57
-67.06
-80.94
-88.2
-89.36
-85.02
-76.18
-64.39
-51.44
-38.61
-26.25
-13.63
0.36
16.47
34.79
54.57
74.71
94.01
111.41
125.84
136.46
142.62
143.72
139.6
130.29
116.41
99.39
81.42
64.64
50.26
37.46
23.43
4.49
-22.2
-57.19
-98.52
-142.69
-185.86
-224.77
-256.86
-279.88
-291.83
-291.63
-279.9
-259.36
-234.16
-208.1
-183.17
-159.11
-134.39
-107.92
-80.41
-54.49
-33.44
-19.62
-13.01
-11.06
-9.33
-3.09
10.95
33.16
60.76
88.88
112.37
127.76
134.44
134.38
130.65
125.64
120.19
113.95
106.5
98.25
90.47
84.43
80.26
76.7
71.62
63.41
51.99
39.04
27.28
19.29
16.57
18.99
25.25
33.42
41.8
49.24
55.36
60.44
65.37
71.29
79.03
88.76
99.74
110.42
119.06
124.44
126.4
125.72
123.68
121.39
119.36
117.57
115.62
113.03
109.23
103.49
94.88
82.62
66.67
48.22
29.69
13.78
2.17
-5.57
-12.03
-20.83
-34.84
-54.65
-78.1
-100.99
-118.75
-127.94
-127.3
-117.78
-101.92
-82.74
-62.74
-43.34
-24.83
-6.98
10.3
26.57
40.72
51.62
58.84
63.08
65.75
68.16
70.75
73.15
74.63
75.02
75.11
76.37
80.25
87.4
97.38
108.89
120.45
130.85
139.58
146.79
152.84
157.96
162.01
164.89
167
169.43
173.65
180.47
189.38
198.09
203.33
202.55
195.17
183.16
170.04
159.17
152.14
148.28
145.42
141.41
135.43
128.28
121.67
116.85
113.73
110.55
104.53
93.07
74.91
50.6
22.24
-7.41
-35.86
-61.45
-83.51
-101.96
-116.88
-128.09
-135.06
-137.1
-133.77
-125.31
-112.87
-98.41
-84.27
-72.42
-63.96
-58.86
-56.24
-54.9
-53.93
-52.97
-52.15
-51.79
-51.96
-52.43
-52.73
-52.42
-51.51
-50.55
-50.49
-52.19
-55.96
-61.25
-66.75
-70.82
-72.1
-70.07
-65.18
-58.65
-51.99
-46.45
-42.81
-41.3
-41.79
-44
-47.72
-52.82
-59.27
-67.08
-76.23
-86.64
-98.11
-110.38
-123.11
-135.98
-148.6
-160.44
-170.71
-178.37
-182.27
-181.53
-175.86
-165.79
-152.61
-137.96
-123.29
-109.51
-96.77
-84.7
-72.77
-60.56
-48.02
-35.34
-22.84
-10.8
0.62
11.36
21.39
30.57
38.71
45.58
51.05
55.15
58.06
60.09
61.49
62.4
62.69
62.12
60.36
57.2
52.6
46.78
40.1
32.96
25.66
18.31
10.85
3.1
-5.09
-13.78
-22.81
-31.88
-40.68
-48.85
-56.04
-61.8
-65.5
-66.5
-64.25
-58.63
-50.09
-39.64
-28.49
-17.69
-7.86
0.81
8.25
14.34
18.77
21.31
22.13
21.98
22.02
23.3
26.19
30.23
34.27
37.14
38.21
37.66
36.39
35.43
35.56
36.98
39.35
42.03
44.31
45.61
45.5
43.73
40.24
35.1
28.65
21.38
13.87
6.68
0.23
-5.25
-9.82
-13.64
-16.91
-19.68
-21.81
-22.92
-22.59
-20.5
-16.68
-11.6
-6.19
-1.69
0.67
0.07
-3.43
-8.83
-14.48
-18.78
-20.93
-21.1
-20.1
-18.58
-16.33
-12.08
-4
9.23
27.83
50.68
75.82
101.06
124.52
144.87
161.18
172.83
179.65
181.92
180.45
176.27
170.31
163.25
155.43
147.04
138.3
129.4
120.38
110.94
100.5
88.28
73.56
55.79
34.47
9.13
-20.71
-55.22
-93.79
-134.63
-174.85
-211.05
-240.15
-260.09
-269.99
-269.8
-259.69
-239.84
-210.79
-174.17
-133.22
-92.47
-56.58
-28.87
-10.19
1.08
8.12
14.03
20.66
28.07
34.81
38.68
37.52
29.83
15.17
-5.67
-30.65
-56.81
-80.84
-99.78
-111.63
-115.61
-112.11
-102.42
-88.37
-72.15
-55.96
-41.71
-30.52
-22.38
-16.16
-10.04
-2.28
8.09
20.96
35.25
49.45
62.17
72.55
80.35
85.92
89.91
93.08
96.07
99.22
102.5
105.47
107.53
108.06
106.75
103.58
98.85
92.94
86.17
78.79
71.13
63.56
56.56
50.41
45.01
39.8
33.9
26.52
17.38
6.81
-4.31
-14.9
-24.09
-31.47
-37.05
-41.16
-44.23
-46.67
-48.84
-51.02
-53.4
-55.96
-58.48
-60.53
-61.67
-61.6
-60.37
-58.49
-56.83
-56.4
-57.99
-61.91
-67.75
-74.5
-80.79
-85.29
-87.1
-85.98
-82.31
-76.96
-70.95
-65.22
-60.47
-57.1
-55.27
-54.91
-55.72
-57.17
-58.53
-59.03
-58.04
-55.33
-51.11
-46.01
-40.85
-36.43
-33.29
-31.6
-31.19
-31.64
-32.47
-33.33
-34.08
-34.84
-35.81
-37.16
-38.83
-40.58
-42.1
-43.24
-44.18
-45.33
-47.23
-50.26
-54.43
-59.37
-64.35
-68.36
-70.31
-69.27
-64.66
-56.49
-45.42
-32.54
-19.1
-6.19
5.49
15.62
24.14
31.21
37.11
42.24
47.1
52.1
57.46
63.07
68.65
73.88
78.61
82.92
86.95
90.71
93.88
96.02
96.61
95.48
92.87
89.37
85.8
82.99
81.64
82.24
84.94
89.42
94.75
99.53
102.08
101.09
96.09
87.78
77.84
68.37
61.02
56.45
54.22
53.18
52.17
50.42
47.68
43.94
39.14
33.07
25.47
16.19
5.36
-6.69
-19.5
-32.6
-45.54
-57.76
-68.65
-77.49
-83.65
-86.73
-86.69
-83.84
-78.82
-72.44
-65.52
-58.69
-52.38
-46.78
-42.04
-38.39
-36.09
-35.32
-35.95
-37.48
-39.27
-40.76
-41.81
-42.59
-43.49
-44.76
-46.4
-48.19
-49.9
-51.39
-52.75
-54.07
-55.31
-56.17
-56.14
-54.65
-51.45
-46.64
-40.72
-34.38
-28.17
-22.37
-16.96
-11.78
-6.7
-1.7
3.19
8
12.84
17.91
23.26
28.68
33.74
37.92
40.85
42.43
42.9
42.62
41.9
40.94
39.73
38.17
36.18
33.72
30.9
27.91
25.05
22.64
21
20.48
21.38
23.85
27.85
33.04
38.91
45.08
51.47
58.47
66.64
76.32
87.1
97.68
106.22
110.92
110.62
105.06
94.76
80.53
63.29
43.95
23.49
3.14
-15.83
-32.38
-45.94
-56.5
-64.36
-69.75
-72.61
-72.69
-69.83
-64.37
-57.21
-49.65
-42.89
-37.7
-34.24
-32.23
-31.19
-30.77
-30.81
-31.21
-31.76
-32.16
-32.17
-31.81
-31.46
-31.64
-32.67
-34.36
-35.9
-36.18
-34.18
-29.37
-21.74
-11.71
0.12
13.16
26.95
41.1
55.27
69.08
81.98
93.18
101.74
106.69
107.48
104.18
97.5
88.59
78.57
68.12
57.31
45.68
32.55
17.29
-0.34
-20.03
-40.69
-60.48
-77.1
-88.35
-92.98
-91.13
-84.41
-75.36
-66.51
-59.55
-54.9
-51.85
-49.04
-45.2
-39.59
-32.21
-23.7
-14.91
-6.64
0.6
6.64
11.53
15.35
18.15
19.95
20.88
21.33
21.88
23.04
25
27.49
29.79
31.14
31.03
29.46
26.92
24.05
21.39
19.16
17.21
15.16
12.61
9.25
4.99
-0.07
-5.66
-11.42
-17.04
-22.31
-27.17
-31.59
-35.39
-38.2
-39.37
-38.31
-34.74
-28.92
-21.61
-13.88
-6.71
-0.67
4.11
7.83
10.71
12.8
13.91
13.76
12.22
9.47
5.98
2.39
-0.72
-2.92
-4
-3.95
-2.86
-0.88
1.7
4.54
7.2
9.27
10.37
10.25
8.73
5.74
1.34
-4.26
-10.63
-17.22
-23.28
-28.03
-30.75
-30.93
-28.42
-23.54
-17.06
-9.96
-3.14
2.83
7.81
11.92
15.37
18.21
20.36
21.65
22.04
21.66
20.8
19.83
19.04
18.61
18.5
18.57
18.49
18.01
16.93
15.23
13.05
10.59
8.02
5.41
2.74
-0.08
-3.16
-6.59
-10.48
-14.89
-19.77
-24.81
-29.36
-32.54
-33.42
-31.44
-26.63
-19.72
-11.85
-4.25
2.24
7.34
11.29
14.52
17.42
20.07
22.26
23.76
24.39
24.21
23.44
22.36
21.12
19.78
18.3
16.66
14.94
13.28
11.81
10.54
9.31
7.84
5.83
3.15
-0.16
-3.88
-7.72
-11.46
-15.01
-18.43
-21.82
-25.12
-27.96
-29.74
-29.76
-27.56
-23.14
-17.05
-10.21
-3.52
2.43
7.45
11.66
15.28
18.41
21.01
22.97
24.24
24.91
25.17
25.25
25.3
25.38
25.47
25.55
25.58
25.56
25.46
25.2
24.67
23.65
21.93
19.32
15.83
11.66
7.23
3
-0.66
-3.65
-6.18
-8.73
-11.85
-16.03
-21.4
-27.69
-34.18
-39.77
-43.27
-43.72
-40.68
-34.44
-25.96
-16.59
-7.64
-0.02
5.97
10.53
14.07
17.03
19.57
21.64
23.16
24.07
24.53
24.78
25.04
25.32
25.49
25.28
24.51
23.14
21.36
19.41
17.49
15.67
13.85
11.88
9.58
6.86
3.7
0.15
-3.73
-7.86
-12.16
-16.51
-20.78
-24.85
-28.6
-32.06
-35.42
-38.97
-42.93
-47.24
-51.37
-54.39
-55.25
-53.23
-48.28
-41.08
-32.85
-24.9
-18.29
-13.6
-10.99
-10.31
-11.39
-14.02
-18.05
-23.33
-29.55
-36.27
-42.84
-48.57
-52.94
-55.77
-57.37
-58.34
-59.26
-60.3
-61.11
-61.06
-59.8
-57.62
-55.56
-54.74
-55.77
-58.24
-60.89
-62.3
-61.5
-58.34
-53.17
-46.38
-38.17
-28.74
-18.78
-9.69
-3.12
-0.09
0.03
-0.34
2.24
10.67
25.82
45.92
67.3
86.12
100.34
110.78
120.79
134.45
154.31
179.9
207.67
232.43
249.4
256.01
252.49
241.41
226.58
212.02
201.06
195.48
194.76
195.58
192.41
179.23
152.1
111.14
61.08
9.66
-35.22
-68.01
-87.02
-93.9
-92.19
-85.7
-77.53
-69.81
-63.81
-60.13
-58.64
-58.72
-59.5
-60.32
-60.9
-61.32
-61.75
-62.3
-63.03
-64.06
-65.52
-67.42
-69.33
-70.42
-69.73
-66.77
-62
-56.82
-53.03
-51.97
-53.92
-57.91
-62.21
-64.96
-64.84
-61.34
-54.67
-45.42
-34.22
-21.57
-7.87
6.26
19.83
31.46
39.63
43.16
41.65
35.62
26.38
15.59
4.87
-4.53
-11.84
-16.72
-19.2
-19.53
-18.11
-15.52
-12.31
-8.98
-5.94
-3.44
-1.57
-0.21
0.89
2.03
3.35
4.71
5.72
5.94
5.27
4.09
3.21
3.51
5.49
8.97
13.11
16.67
18.52
17.9
14.66
9.1
1.91
-6.01
-13.6
-19.89
-24.26
-26.73
-27.92
-28.85
-30.38
-32.72
-35.53
-38.36
-41.2
-44.96
-50.92
-60.02
-72.08
-85.73
-99.18
-110.89
-119.8
-124.93
-124.78
-117.46
-101.72
-78.22
-50.02
-21.84
1.82
18.4
28.07
32.99
35.76
38.06
40.26
41.8
41.91
40.03
35.77
28.83
19.08
7.01
-6.21
-18.96
-29.76
-37.83
-43.03
-45.48
-45.02
-40.97
-32.48
-19.11
-1.47
18.73
38.87
56.28
68.73
74.89
74.33
67.44
55.6
41.18
27.32
17.04
12.11
11.98
13.73
13.03
6.24
-7.23
-23.84
-36.48
-37.04
-19.46
17.64
70.31
130.49
188.42
235.33
265.3
276.16
269.19
248.39
219.04
186.49
155.12
127.49
104.31
84.78
67.55
51.51
36.15
21.49
7.67
-5.48
-18.51
-32.07
-46.43
-60.97
-74.23
-84.27
-89.47
-89.05
-83.49
-74.19
-62.76
-50.45
-37.78
-24.74
-11.15
2.89
17
30.47
42.57
52.68
60.32
65.36
68.17
69.8
71.6
74.84
79.77
84.87
86.77
80.76
61.97
26.58
-26.72
-95.63
-173.59
-250.26
-313.14
-350.55
-354.92
-325.13
-267.06
-191.69
-111.74
-38.12
22.22
66.6
95.27
109.8
112.13
104.52
89.99
72.28
55.11
40.9
30.04
20.99
11.25
-0.97
-15.81
-31.59
-45.71
-55.78
-60.59
-60.26
-55.92
-49.09
-41.17
-33.31
-26.38
-20.83
-16.69
-13.56
-10.91
-8.33
-5.87
-3.92
-2.91
-2.89
-3.42
-3.79
-3.49
-2.64
-1.92
-2.29
-4.31
-7.79
-11.76
-14.84
-15.86
-14.24
-10.19
-4.49
1.85
7.83
12.64
15.58
16.07
13.6
7.94
-0.68
-11.46
-23.08
-34.02
-42.94
-49.07
-52.13
-52.28
-49.79
-44.94
-38.11
-29.83
-20.92
-12.21
-4.34
2.45
8.34
13.62
18.49
22.77
25.99
27.59
27.2
24.77
20.7
15.66
10.5
6.04
2.84
1.13
0.79
1.52
3.01
5.06
7.52
10.17
12.61
14.27
14.66
13.58
11.23
8.1
4.65
1.09
-2.75
-7.16
-12.21
-17.55
-22.37
-25.68
-26.74
-25.41
-22.3
-18.51
-15.31
-13.71
-14.2
-16.68
-20.48
-24.59
-27.74
-28.67
-26.38
-20.36
-10.93
0.48
11.65
19.95
23.32
21.01
13.86
3.95
-6.37
-15.47
-22.94
-29.35
-35.53
-41.66
-46.9
-49.77
-49.1
-44.81
-38.3
-31.94
-28
-27.79
-31.3
-37.75
-46.4
-57.13
-70.23
-85.66
-102.04
-116.57
-125.82
-127.22
-120.25
-106.73
-89.79
-72.45
-56.4
-42.01
-29.15
-17.87
-8.39
-0.38
7.54
17.8
32.88
54.13
80.98
111.12
141.42
168.9
191.25
206.78
214.31
213.07
203.19
186.18
164.89
142.89
123.43
108.25
97
87.47
76.15
59.29
33.93
-1.07
-44.34
-91.99
-138.44
-177.81
-205.8
-221.07
-225.39
-222.81
-217.73
-213.29
-210.55
-209.01
-207.73
-206.53
-206.32
-208.21
-212.52
-218.07
-222.48
-223.53
-220.14
-212.6
-201.93
-188.87
-173.08
-153.33
-128.27
-97.24
-60.87
-20.91
20.25
60.14
96.7
128.45
154.64
175.34
191.45
204.4
215.74
226.5
236.96
246.79
255.4
262.15
266.53
268.19
266.82
262.34
254.9
244.94
233.14
220.25
206.85
193.28
179.58
165.54
150.84
135.25
118.79
101.78
84.87
68.8
54.27
41.76
31.6
23.94
18.89
16.42
16.12
17.13
18.21
18.14
16.22
12.51
7.73
2.74
-2.06
-7.1
-13.46
-22.29
-34.11
-48.5
-64.23
-79.92
-94.59
-107.97
-120.35
-132.22
-143.94
-155.57
-166.87
-177.42
-186.64
-193.77
-198
-198.66
-195.49
-188.8
-179.4
-168.23
-155.87
-142.29
-126.96
-109.21
-88.69
-65.67
-40.99
-15.88
8.34
30.65
50.49
67.84
83.06
96.64
109.01
120.44
131.09
141.21
151.12
161.12
171.32
181.44
190.84
198.76
204.63
208.27
209.9
209.94
208.74
206.46
203.04
198.29
192.13
184.58
175.87
166.38
156.61
147
137.83
129.01
120.17
110.76
100.31
88.63
75.85
62.37
48.63
35.06
22.05
9.98
-0.67
-9.44
-15.96
-20.1
-22.01
-22.1
-20.84
-18.71
-16.08
-13.27
-10.49
-7.94
-5.73
-3.97
-2.72
-1.93
-1.42
-0.93
-0.25
0.48
0.64
-1.02
-6.11
-16.16
-32.16
-54.25
-81.6
-112.41
-144.13
-173.53
-196.98
-210.81
-212.06
-199.22
-172.78
-135.31
-90.77
-43.62
2.26
44.12
80.44
110.65
134.85
153.77
168.76
181.71
194.5
208.15
221.98
233.49
239.28
236.49
224.27
204.12
179.13
152.38
125.62
98.9
71.19
41.69
10.65
-20.56
-50.13
-76.76
-100.18
-120.95
-139.86
-157.13
-172.2
-184.02
-191.71
-195.07
-194.82
-192.29
-188.86
-185.44
-182.22
-178.93
-175.28
-171.4
-167.89
-165.49
-164.64
-165.14
-166.38
-167.66
-168.67
-169.61
-171.03
-173.41
-176.66
-179.96
-181.8
-180.39
-174.18
-162.26
-144.73
-122.69
-98.07
-73.26
-50.62
-31.97
-18.36
-9.96
-6.29
-6.49
-9.46
-13.91
-18.28
-20.89
-20.23
-15.48
-6.93
4.06
15.55
25.79
33.82
39.5
43.18
45.29
46.17
46.31
46.56
48.2
52.38
59.47
68.44
77.03
82.46
82.55
76.74
66.41
54.47
44.29
38.48
37.91
41.57
47.07
51.78
53.86
52.86
49.52
45.1
40.69
36.87
33.84
31.88
31.58
33.83
39.3
48.12
59.51
72.05
84.07
94.24
101.95
107.46
111.66
115.65
120.34
126.03
132.38
138.52
143.41
146.28
146.89
145.55
143.01
140.09
137.39
134.98
132.44
129.11
124.59
119.05
113.39
108.9
106.68
107.03
109.2
111.45
111.51
107.02
95.98
77.06
49.98
15.84
-22.73
-62.13
-98.91
-131.09
-158.92
-184.38
-209.67
-235.34
-259.54
-278.53
-288.48
-287.33
-275.73
-256.6
-233.74
-210.44
-188.78
-169.83
-154.1
-141.82
-132.82
-126.29
-120.82
-114.89
-107.64
-99.37
-91.39
-85.41
-82.6
-83.1
-85.94
-89.47
-91.92
-91.94
-88.79
-82.47
-73.61
-63.2
-52.23
-41.34
-30.77
-20.53
-10.78
-2.04
4.84
9.13
10.69
10.14
8.5
6.64
4.58
1.38
-4.48
-14.28
-28.42
-45.9
-64.24
-79.73
-88.12
-85.64
-70.21
-42.37
-5.34
35.84
75.88
110.68
138.15
158.01
171
178.13
180.34
178.56
173.91
167.67
160.94
154.33
147.86
141.17
133.92
126.07
117.84
109.49
101.14
92.68
83.97
75.04
66.18
57.81
50.26
43.72
38.1
33.23
28.88
24.89
21.1
17.33
13.33
8.92
4.11
-0.84
-5.49
-9.35
-12.28
-14.59
-17
-20.37
-25.21
-31.34
-37.9
-43.64
-47.43
-48.68
-47.48
-44.37
-39.92
-34.45
-27.86
-19.83
-10.18
0.83
12.52
23.98
34.43
43.56
51.58
59.03
66.42
73.95
81.32
87.86
92.71
95.1
94.46
90.45
83.05
72.55
59.64
45.42
31.19
18.13
6.91
-2.68
-11.61
-21.14
-32.08
-44.28
-56.47
-66.74
-73.34
-75.39
-73.18
-67.99
-61.47
-54.98
-49.23
-43.99
-38.33
-31.04
-21.01
-7.9
7.57
23.68
38.23
49.23
55.62
57.44
55.49
50.95
44.8
37.74
30.22
22.58
14.92
6.88
-2.35
-13.68
-27.45
-42.84
-58.03
-70.84
-79.78
-84.76
-87.15
-88.92
-91.56
-95.27
-99
-101.08
-100.31
-96.84
-92.15
-88.39
-87.31
-89.43
-93.94
-99.22
-103.73
-106.72
-108.48
-109.92
-111.89
-114.69
-117.83
-120.29
-120.94
-119.01
-114.33
-107.33
-98.59
-88.6
-77.54
-65.38
-52.22
-38.62
-25.68
-14.78
-7.07
-2.98
-2.15
-3.69
-6.67
-10.61
-15.43
-21.18
-27.71
-34.38
-40.24
-44.27
-45.69
-44.13
-39.57
-32.29
-22.75
-11.52
0.87
14.02
27.65
41.63
55.87
70.2
84.34
97.88
110.38
121.41
130.55
137.58
142.12
143.76
142.02
136.43
126.64
112.65
94.9
74.25
51.82
28.49
4.71
-19.42
-43.76
-67.59
-89.5
-107.67
-120.58
-127.23
-127.78
-123.07
-114.14
-101.83
-86.84
-70.05
-52.66
-36.42
-21.89
-9.22
2.3
13.73
25.77
38.15
49.71
58.87
63.67
64.65
62.32
57.69
51.74
44.89
36.77
26.4
12.75
-5.92
-27.75
-51.49
-75.03
-96
-112.27
-122.54
-126.49
-124.53
-119.12
-109.33
-96.47
-81.62
-65.5
-48.53
-31.24
-14.22
12.19
34.35
54.38
72.08
87.47
100.94
112.8
122.72
129.67
132.33
127.95
117.83
101.26
78.53
51.69
24.19
-0.18
-18.49
-29.54
-35.57
-31.08
-16.82
2.44
21.1
36.36
48.69
59.64
69.84
77.91
82.5
83.89
83.63
83.71
85.19
86.96
86.02
78.81
62.45
37.44
5.1
-32.07
-71.35
-110.9
-150.41
-190.45
-231.43
-272.69
-311.99
-347.15
-376.73
-400.53
-419.57
-435.39
-448.85
-459.16
-463.91
-460.15
-446.09
-422.05
-390.21
-353.53
-314.66
-275.06
-235.03
-194.24
-152.39
-109.64
-66.54
-23.63
18.77
60.56
101.62
141.64
180.12
216.54
250.51
282.01
311.48
339.96
368.81
398.93
429.93
459.44
483.24
496.39
495
477.77
446.57
405.88
361.21
317.38
277.5
242.8
213.25
188.39
167.84
151.53
139.38
131.13
126.24
124.08
124.19
126.49
131.41
139.43
150.55
163.69
176.62
186.53
191.12
189.56
182.75
172.85
161.97
151.16
139.99
127.15
111.52
93.14
73.37
54.23
37.4
23.42
11.67
1.13
-8.73
-17.48
-23.85
-26.52
-24.97
-19.88
-13.02
-6.52
-2.06
-0.41
-1.3
-3.8
-6.81
-9.53
-11.61
-13.17
-14.56
-16.16
-18.11
-20.3
-22.28
-23.37
-22.75
-19.69
-13.77
-5.13
5.32
15.99
24.92
30.31
31.14
27.53
20.76
12.66
5.01
-1
-5.16
-8.19
-11.28
-15.57
-21.58
-29.18
-37.77
-46.66
-55.19
-63.05
-70.27
-77.01
-83.47
-89.68
-95.63
-101.45
-107.47
-113.82
-120.53
-127.57
-134.85
-142.36
-150.1
-158.22
-167.13
-177.38
-188.41
-199.43
-209.93
-220.27
-231.67
-245.61
-263.34
-285.69
-312.81
-341.55
-367.48
-386.07
-394.19
-390.62
-375.58
-350.34
-317.26
-279.2
-235.14
-183.11
-121.78
-52.43
20.9
93.34
161.1
221.86
275.33
327.71
386.33
456.5
539.03
630.67
727.58
826.97
926.16
990.37
987.41
899.98
738.91
537.72
332.77
149.84
1.11
-111.49
-190.5
-234.56
-242.03
-214.33
-159.63
-93.85
-34.7
6.17
20.72
7.23
-26.9
-70.8
-113.85
-149.2
-176.05
-196.39
-213.89
-233.06
-257.71
-288.01
-322.34
-358.88
-387.16
-401.54
-398.99
-379.54
-345.86
-301.86
-251.21
-197.89
-146.1
-99.65
-63.74
-38.61
-23.56
-16.92
-16.27
-18.79
-22.01
-24.03
-23.37
-20.12
-14.32
-6.97
0.83
7.83
12.67
14.38
13.04
9.96
6.56
4.43
4.27
5.98
8.98
12.77
17.28
23.02
30.56
39.75
49.84
59.49
67.49
73.2
76.78
79.07
81.3
84.57
89.34
95.54
102.49
109.37
115.59
120.93
125.74
130.61
136.26
143.12
151.21
160.18
169.59
179.16
188.8
198.15
206.31
211.81
213.03
208.9
199.18
184.19
164.17
138.88
107.76
70.85
29.69
-12.46
-51.61
-84.73
-111.33
-133.79
-156.45
-183.95
-219.82
-265.62
-320.97
-383.41
-448.36
-509.52
-559.71
-592.78
-605.4
-598.08
-574.87
-541.64
-504.04
-466.04
-429.65
-395.47
-363.66
-334.2
-306.72
-280.21
-253.05
-223.6
-191.06
-155.98
-120.08
-85.58
-54.06
-25.67
1.04
28.64
59.57
94.61
131.98
167.23
194.39
207.93
204.75
185.67
155.49
121.8
92.89
75.63
74.07
88.9
117.96
157.13
201.53
246.5
288.35
324.64
354.1
376.26
390.86
397.5
395.57
384.58
364.56
336.68
303.61
269.14
237.15
210.42
189.8
174.19
161.53
149.83
138.02
126.18
114.83
104.29
94.22
83.78
72.23
59.82
47.55
36.84
28.79
23.75
21.28
20.5
20.57
20.98
22.52
26.24
32.89
42.47
54.14
66.6
78.45
88.68
96.95
105.31
115.9
130.14
148
168.08
188.41
207.06
222.64
234.4
244.6
255
266.06
276.8
285.64
291.85
295.7
297.65
297.31
296.16
293.95
289.22
280.19
266.09
248.26
229.49
212.52
179.77
122.71
43.3
-45.41
-126.92
-190.45
-233.16
-257.82
-269.35
-272.36
-267.08
-253.76
-233.64
-209.29
-184.77
-163.55
-147.81
-138.18
-134.22
-132.51
-130.63
-128.55
-125.68
-124.21
-126.48
-133.86
-146.25
-162.43
-179.06
-193.33
-203.89
-211.28
-217.89
-226.47
-239.62
-259.47
-287
-320.44
-355.49
-385.83
-404.48
-406.45
-389.81
-356.41
-310.89
-258.61
-203.24
-146.1
-86.92
-25.44
36.96
97.37
152.4
199.38
237.06
264.99
282.59
288.33
280.05
255.87
215.67
161.68
97.95
29.11
-40.6
-107.49
-168.05
-218.71
-256.41
-279.66
-289.46
-289.02
-282.15
-271.59
-257.9
-239.87
-216.1
-186.73
-154.25
-123.02
-97.59
-80.9
-72.88
-70.06
-66.27
-54.37
-28.85
11.83
63.74
117.93
162.9
187.89
185.66
153.68
93.66
10.67
-87.67
-191.49
-289.27
-369.38
-422.65
-444.89
-438.1
-409.48
-368.57
-323.82
-280.52
-240.33
-202.49
-165.39
-127.58
-87.91
-45.26
1.25
51.51
103.36
152.21
191.78
215.69
220.03
204.95
175.25
139.13
105.86
83.15
75.28
82.5
101.75
128.19
156.71
183.2
205.08
221.41
232.49
239.4
243.49
246.04
248.15
250.47
253.02
255.01
254.77
250.21
239.56
222.15
198.94
172.27
144.94
119.07
95.41
73.5
52.63
32.71
14.74
0.31
-9.36
-14.28
-15.69
-15.4
-14.87
-14.62
-14.42
-13.91
-13.26
-13.23
-14.72
-18.12
-22.93
-27.92
-31.6
-32.83
-31.08
-26.34
-19.06
-9.9
0.35
10.86
20.87
29.84
37.56
44.15
49.83
54.86
59.4
63.47
66.94
69.58
71.05
70.94
68.96
65.1
59.68
53.32
46.72
40.42
34.72
29.71
25.39
21.83
19.1
17.2
16
15.18
14.36
13.28
11.9
10.43
9.16
8.29
7.7
6.95
5.49
2.95
-0.6
-4.65
-8.5
-11.64
-13.94
-15.67
-17.28
-19.07
-21.02
-22.88
-24.37
-25.43
-26.33
-27.51
-29.35
-31.99
-35.22
-38.54
-41.31
-42.99
-43.19
-41.76
-38.64
-33.84
-27.2
-18.6
-8.08
3.89
16.36
28.03
37.76
44.93
49.61
52.36
53.61
53.33
51.05
46.38
39.7
32.31
26.09
22.58
22.16
23.83
25.87
26.71
25.82
23.81
21.83
20.75
20.59
20.62
19.94
18.1
15.38
12.57
10.58
9.91
10.57
12.13
14.04
15.84
17.34
18.47
19.23
19.56
19.33
18.38
16.63
14.11
10.99
7.51
3.95
0.52
-2.62
-5.45
-8.11
-10.85
-13.97
-17.71
-22.11
-26.98
-31.91
-36.42
-40.12
-42.84
-44.69
-45.93
-46.91
-47.92
-49.17
-50.81
-52.92
-55.47
-58.32
-61.11
-63.4
-64.7
-64.67
-63.15
-60.22
-56.09
-51
-45.18
-38.81
-32.07
-25.29
-18.94
-13.61
-9.75
-7.51
-6.53
-6.07
-5.1
-2.8
1.14
6.29
11.57
15.64
17.39
16.5
13.72
10.76
9.77
12.61
20.26
32.46
47.87
64.68
81.04
95.52
107.47
117.22
126.12
135.93
147.78
160.86
171.66
174.58
163.71
135.35
89.77
31.64
-31.51
-91.64
-142.42
-180.36
-204.79
-217.1
-219.81
-216.08
-209.15
-201.95
-196.56
-193.79
-193.19
-193.27
-191.7
-185.89
-173.51
-153.15
-125.03
-91.12
-54.75
-19.52
11.79
37.78
58.29
73.53
83.36
87.05
83.77
73.28
56.44
35.08
11.38
-12.81
-36.52
-59.52
-81.94
-103.93
-125.14
-144.43
-159.77
-168.42
-167.39
-154.18
-127.65
-88.67
-40.43
11.94
62.34
104.96
135.65
152.71
157.04
151.55
139.91
125.59
111
97.46
85.41
74.9
65.91
58.37
52.06
46.59
41.45
36.3
31.07
26.04
21.67
18.31
16
14.36
12.78
10.66
7.69
4.06
0.28
-2.97
-5.23
-6.46
-7
-7.46
-8.32
-9.74
-11.43
-12.81
-13.29
-12.57
-10.76
-8.29
-5.7
-3.4
-1.63
-0.45
0.18
0.27
-0.09
-0.76
-1.46
-1.91
-1.91
-1.38
-0.41
0.82
2.13
3.37
4.45
5.27
5.71
5.71
5.24
4.37
3.23
2.04
1
0.28
-0.1
-0.16
-0.02
0.16
0.24
0.1
-0.34
-1.05
-1.92
-2.7
-3.09
-2.82
-1.75
0
2.1
4.11
5.65
6.55
6.84
6.7
6.37
5.96
5.54
5.08
4.59
4.17
3.89
3.84
3.96
4.14
4.23
4.12
3.82
3.46
3.2
3.16
3.33
3.61
3.85
3.93
3.82
3.58
3.31
3.07
2.85
2.58
2.2
1.72
1.27
1.14
1.6
2.86
4.94
7.65
10.67
13.64
16.28
18.5
20.34
21.9
23.25
24.33
25.04
25.26
24.94
24.15
22.99
21.46
19.45
16.78
13.31
9.11
4.42
-0.44
-5.31
-10.3
-15.73
-21.84
-28.56
-35.41
-41.59
-46.42
-49.59
-51.3
-52.08
-52.42
-52.54
-52.36
-51.67
-50.37
-48.63
-46.78
-45.1
-43.71
-42.46
-41.16
-39.8
-38.68
-38.37
-39.39
-41.94
-45.75
-50.09
-54.05
-56.87
-58.14
-57.72
-55.62
-51.94
-46.73
-40.05
-32.02
-22.71
-12.17
-0.59
11.65
23.65
34.18
42.07
46.59
47.79
46.31
42.9
37.83
30.85
21.49
9.85
-2.96
-14.94
-24
-29.04
-30.65
-30.95
-32.51
-37.07
-44.47
-52.56
-58.08
-57.78
-49.54
-33.09
-10.08
16.07
40.68
58.68
65.89
60.43
43.88
21.05
-1.36
-17.24
-23.39
-20.68
-13.33
-6.94
-6.13
-13.06
-27.19
-46.08
-66.48
-85.2
-99.57
-107.53
-107.79
-100.05
-85.12
-64.96
-42.3
-20.03
-0.52
14.85
25.82
33.2
38.42
43.08
48.39
54.75
61.46
67.06
69.9
69.08
64.99
59.24
53.99
50.96
50.73
52.52
54.59
55.07
52.59
46.73
38.06
28
18.41
10.98
6.63
5.06
4.89
4.19
1.5
-3.57
-10.06
-16.21
-20.02
-19.87
-14.67
-3.89
12.38
33.24
56.88
80.9
103.03
121.82
137.02
149.31
159.6
168.37
175.48
180.44
182.86
182.79
180.44
175.98
169.18
159.54
146.81
131.43
114.74
98.68
85.14
75.28
69.34
66.77
66.74
68.67
72.41
77.96
85.11
93.08
100.53
106.01
108.42
107.3
102.76
95.06
84.33
70.53
53.77
34.64
14.31
-5.66
-23.91
-39.72
-53.33
-65.66
-77.8
-90.35
-103.08
-114.88
-124.4
-130.54
-133.08
-132.73
-130.86
-128.96
-128.09
-128.6
-130.12
-131.95
-133.23
-133.1
-130.64
-124.99
-115.37
-101.62
-84.51
-65.87
-48.26
-34.31
-25.9
-23.55
-26.38
-32.43
-39.33
-45.04
-48.21
-48.31
-45.36
-39.7
-31.78
-22.17
-11.5
-0.45
10.24
20.06
28.64
35.83
41.6
45.89
48.54
49.38
48.29
45.35
40.91
35.52
29.9
24.76
20.65
17.73
15.78
14.12
11.99
8.86
4.81
0.5
-3.11
-5.22
-5.64
-4.9
-3.93
-3.62
-4.41
-6.17
-8.48
-10.96
-13.48
-16.06
-18.69
-21.18
-23.24
-24.66
-25.34
-25.23
-24.08
-21.28
-16.06
-7.93
2.86
15.09
26.83
36.09
41.48
42.63
40.27
35.78
30.73
26.31
23.08
20.98
19.54
18.23
16.74
15.07
13.31
11.42
9.17
6.23
2.49
-1.77
-5.88
-9.13
-11.04
-11.6
-11.12
-9.95
-8.2
-5.77
-2.46
1.85
7.01
12.7
18.49
23.92
28.57
32.06
34.1
34.55
33.52
31.26
28.12
24.38
20.25
15.92
11.64
7.84
4.96
3.31
2.87
3.31
4.09
4.66
4.6
3.7
1.86
-0.86
-4.36
-8.42
-12.79
-17.09
-20.96
-24.03
-26.1
-27.17
-27.55
-27.83
-28.83
-31.43
-36.24
-43.36
-52.18
-61.52
-70
-76.62
-81.4
-85.62
-91.37
-100.72
-114.61
-132.15
-150.77
-167.09
-178.19
-182.53
-180.31
-173.05
-162.84
-151.76
-141.7
-134.44
-131.49
-133.69
-140.58
-150.14
-159.07
-163.87
-161.95
-152.3
-135.48
-112.91
-86.18
-56.57
-25.16
6.78
37.64
65.72
89.8
109.67
126.12
140.38
153.42
165.29
175.24
182.18
185.44
185.17
182.17
177.44
171.6
164.73
156.7
147.51
137.69
128.16
119.8
112.93
107.13
101.41
94.8
86.81
77.74
68.52
60.45
54.74
52.2
53.02
56.65
61.97
67.59
72.35
75.72
78.09
80.58
84.6
91.16
100.43
111.58
123.14
133.69
142.5
149.8
156.59
163.96
172.14
179.92
184.52
182.44
170.46
146.95
112.54
70.15
24.26
-20.39
-60.15
-93.61
-121.83
-147.54
-173.67
-201.9
-231.78
-261.09
-286.98
-307.32
-321.59
-331.01
-337.87
-344.76
-353.71
-365.39
-378.72
-390.69
-396.79
-392.07
-372.75
-337.76
-289.32
-232.3
-172.6
-115.19
-63.1
-17.3
22.47
56.7
85.54
108.74
126.09
137.76
144.27
146.29
144.27
138.24
128.08
113.97
96.8
78.14
59.87
43.34
29.02
16.5
4.98
-5.95
-15.84
-23.35
-26.8
-24.96
-17.62
-5.8
8.39
22.22
32.91
38.28
37.24
30.11
18.5
4.58
-9.76
-23.66
-37.31
-51.26
-65.46
-78.81
-89.38
-95.39
-96.18
-92.64
-86.74
-80.39
-74.36
-67.86
-59.04
-45.92
-27.48
-4.09
22.44
49.48
74.39
95.27
111.38
123.1
131.51
137.79
142.78
146.88
150.26
153.18
156.27
160.41
166.5
174.95
185.4
196.64
207.01
214.96
219.61
221.03
220.17
218.38
216.67
215.38
214.35
213.45
213.07
213.7
214.92
214.31
207.7
190.83
161.94
123.69
83.01
48.67
27.74
22.98
32.5
51.42
74.48
97.7
118.49
134.8
144.55
146.21
139.88
127.75
113.22
98.89
84.72
67.59
42.8
6.2
-43.89
-106.11
-176.69
-250.63
-322.7
-388.09
-443.1
-485.91
-517.12
-539.53
-556.9
-572
-585.04
-593.51
-593.57
-582.08
-558.09
-522.94
-479.06
-428.26
-370.86
-306.2
-234.13
-156.66
-78.66
-6.96
51.72
93.18
117.27
127.69
130.46
131.35
133.97
138.89
144.39
148.06
148.36
145.37
140.49
135.51
131.69
129.4
128.3
127.88
127.81
127.96
128.19
128.15
127.24
124.89
120.87
115.32
108.67
101.35
93.7
86.02
78.75
72.5
67.88
65.19
64.27
64.51
65.21
65.95
66.72
67.86
69.68
72.21
75.1
77.78
79.74
80.74
80.89
80.57
80.22
80.16
80.43
80.75
80.63
79.57
77.27
73.78
69.47
64.92
60.65
57.03
54.25
52.4
51.63
52.09
53.93
57.14
61.43
66.18
70.56
73.65
74.54
72.54
67.33
59.08
48.44
36.31
23.51
10.48
-2.86
-16.92
-32.12
-48.59
-65.94
-83.32
-99.49
-112.91
-121.97
-125.3
-122.11
-112.65
-98.43
-81.93
-66.11
-53.53
-45.74
-42.97
-44.33
-48.22
-52.82
-56.5
-58.08
-56.91
-53.03
-47.05
-40.05
-33.34
-28.14
-25.23
-24.8
-26.4
-29.09
-31.73
-33.35
-33.41
-31.95
-29.51
-26.92
-24.99
-24.17
-24.49
-25.57
-26.83
-27.84
-28.5
-29.14
-30.4
-33.01
-37.58
-44.3
-52.86
-62.36
-71.45
-78.56
-82.28
-81.73
-76.81
-68.25
-57.39
-45.74
-34.51
-24.14
-14.22
-3.75
8.31
22.43
38.19
54.39
69.49
82.24
92.01
98.9
103.39
106.03
107.12
106.73
104.82
101.42
96.79
91.39
85.79
80.47
75.7
71.39
67.07
62.11
55.88
48.07
38.7
28.11
16.61
4.45
-8.28
-21.45
-34.66
-47.21
-58.12
-66.51
-71.88
-74.39
-74.79
-74.26
-73.9
-74.46
-76.18
-78.85
-82.05
-85.36
-88.44
-91.01
-92.77
-93.41
-92.66
-90.41
-86.66
-81.48
-74.96
-67.15
-58.22
-48.52
-38.53
-28.75
-19.5
-10.84
-2.67
5.18
12.69
19.67
25.83
30.96
35.03
38.25
41.11
44.19
48.06
53.08
59.24
66.09
72.83
78.5
82.32
83.97
83.67
82.1
80.24
79.04
79.21
80.97
83.92
87.06
89.19
89.28
86.97
82.77
77.91
73.83
71.75
72.31
75.47
80.68
87.17
94.01
100.26
104.84
106.56
104.13
96.31
82.16
61.42
34.81
4.21
-27.54
-57.25
-82.08
-100.24
-111.35
-116.28
-116.67
-114.28
-110.46
-106.06
-101.53
-97.1
-93.06
-89.69
-87.21
-85.61
-84.65
-83.9
-82.91
-81.33
-78.94
-75.57
-71.02
-64.95
-57.05
-47.21
-35.75
-23.41
-11.22
-0.17
9.07
16.31
21.83
26.26
30.29
34.52
39.32
44.7
50.4
56.01
61.1
65.37
68.7
71.09
72.63
73.32
73.09
71.87
69.66
66.63
63.06
59.36
55.88
52.83
50.22
47.8
45.22
42.12
38.35
33.96
29.22
24.47
19.89
15.5
11.15
6.68
2.01
-2.79
-7.59
-12.32
-17.02
-21.83
-26.84
-31.92
-36.67
-40.45
-42.64
-42.81
-40.94
-37.25
-32.02
-25.41
-17.41
-7.99
2.59
13.6
23.98
32.57
38.61
41.92
43
42.75
42.14
41.91
42.44
43.72
45.48
47.37
49.18
50.96
53.07
56.02
60.25
65.88
72.6
79.81
86.82
93.09
98.23
101.87
103.52
102.64
98.74
91.51
80.68
65.62
45.01
16.72
-21.7
-71.91
-133.43
-202.82
-273.89
-339.01
-391.18
-425.6
-440.32
-435.8
-413.87
-376.83
-327.23
-268.16
-203.71
-139.09
-79.93
-31.1
4.53
26.74
37.69
40.93
40.12
38.08
36.32
35.36
35.33
36.47
39.38
44.62
52.14
61.01
69.47
75.64
78.32
77.4
73.88
69.29
64.93
61.34
58.26
54.98
50.85
45.73
40.02
34.42
29.59
25.78
22.79
20.13
17.37
14.33
11.16
8.17
5.66
3.68
2.09
0.6
-0.99
-2.76
-4.65
-6.48
-8.16
-9.7
-11.28
-13.11
-15.32
-17.86
-20.41
-22.48
-23.54
-23.22
-21.39
-18.25
-14.23
-9.86
-5.62
-1.83
1.4
4.1
6.35
8.24
9.76
10.94
11.82
12.5
13.11
13.75
14.5
15.32
16.11
16.78
17.23
17.37
17.2
16.74
16.08
15.37
14.74
14.25
13.84
13.34
12.54
11.35
9.82
8.09
6.37
4.77
3.35
2.06
0.86
-0.27
-1.35
-2.41
-3.58
-4.99
-6.82
-9.09
-11.68
-14.23
-16.28
-17.34
-17.05
-15.32
-12.33
-8.54
-4.5
-0.72
2.48
5
6.91
8.36
9.45
10.3
10.95
11.46
11.92
12.4
12.98
13.65
14.33
14.86
15.03
14.74
14.04
13.12
12.3
11.82
11.75
11.91
11.99
11.69
10.91
9.75
8.44
7.16
5.99
4.87
3.69
2.36
0.89
-0.63
-2.08
-3.38
-4.52
-5.58
-6.71
-8.08
-9.81
-11.93
-14.36
-16.87
-19.12
-20.74
-21.38
-20.81
-19
-16.17
-12.67
-8.9
-5.21
-1.81
1.26
4.02
6.48
8.62
10.39
11.73
12.68
13.28
13.67
13.96
14.22
14.48
14.73
14.94
15.09
15.18
15.24
15.32
15.4
15.37
15.08
14.35
13.14
11.56
9.87
8.33
7.12
6.2
5.41
4.52
3.34
1.82
0
-1.98
-3.91
-5.65
-7.07
-8.16
-9.05
-9.96
-11.14
-12.72
-14.64
-16.64
-18.3
-19.24
-19.18
-18.06
-15.98
-13.16
-9.86
-6.36
-2.89
0.36
3.23
5.63
7.5
8.83
9.62
9.93
9.89
9.71
9.64
9.85
10.37
11.05
11.65
11.9
11.7
11.08
10.19
9.24
8.37
7.68
7.19
6.86
6.6
6.31
5.86
5.16
4.19
3.01
1.72
0.43
-0.86
-2.14
-3.49
-4.97
-6.58
-8.35
-10.27
-12.47
-15.03
-18.02
-21.36
-24.81
-28.01
-30.53
-32.05
-32.42
-31.66
-29.96
-27.62
-25.02
-22.53
-20.56
-19.42
-19.25
-19.99
-21.35
-22.93
-24.29
-25.14
-25.45
-25.51
-25.86
-27.19
-30
-34.45
-40.08
-45.77
-49.93
-50.9
-47.41
-39.08
-26.63
-11.67
3.77
17.86
29.44
38.14
44.14
47.8
49.37
49.05
47.09
43.89
39.88
35.12
29.1
20.8
9.14
-6.3
-24.87
-44.86
-64.04
-80.35
-92.41
-99.58
-101.86
-99.64
-93.62
-84.75
-74.22
-63.13
-52.21
-41.55
-30.69
-18.92
-5.8
8.52
23.33
37.65
50.67
62.08
71.99
80.73
88.49
95.21
100.56
104.2
105.96
106
104.74
102.65
100.06
97.03
93.49
89.38
84.8
80.07
75.58
71.63
68.28
65.4
62.71
60
57.15
54.17
51.17
48.26
45.52
42.96
40.6
38.4
36.37
34.58
33.14
32.25
32.1
32.78
34.21
36.09
37.95
39.3
39.81
39.32
37.96
35.96
33.56
30.91
28.03
24.8
21.12
16.97
12.52
8.12
4.18
1.08
-0.91
-1.73
-1.5
-0.47
0.97
2.38
3.26
3.25
2.14
0
-2.88
-6.14
-9.6
-13.46
-18.26
-24.62
-32.81
-42.5
-52.66
-61.97
-69.31
-74.27
-77.43
-80.07
-83.59
-88.91
-96.02
-103.98
-111.23
-116.15
-117.57
-115.16
-109.47
-101.83
-93.8
-86.89
-82.15
-80.03
-80.47
-82.95
-86.65
-90.58
-93.96
-96.66
-99.45
-103.74
-110.78
-120.49
-130.63
-136.9
-134.3
-119.05
-90.35
-50.8
-5.43
40.23
81.95
117.64
146.86
169.69
185.79
194.19
194.03
185.74
171.65
155.71
142.38
135.03
134.75
140.31
148.95
157.74
164.88
170.31
175.27
181.41
189.7
199.76
210.06
218.71
224.36
226.79
226.56
223.96
218.13
206.5
185.39
151.39
102.7
39.45
-36.54
-122.47
-214.74
-308.14
-395.14
-466.29
-512.36
-527.74
-513.22
-476.31
-428.66
-381.4
-340.96
-307.34
-275.49
-238.79
-192.79
-137.28
-76
-14.69
41.17
87.95
124.12
149.62
165.16
171.47
169.71
161.91
151.27
141.75
137.03
139
147.03
157.99
167.26
170.28
163.89
147.16
121.55
90.66
59.44
33.08
15.72
9.32
13.14
24.04
37.66
49.85
57.79
60.3
57.52
50.04
38.29
22.51
3.02
-19.21
-42.27
-63.55
-80.53
-91.58
-96.51
-96.43
-93.16
-88.4
-83.17
-77.65
-71.5
-64.4
-56.31
-47.63
-39.05
-31.36
-25.25
-21.15
-19.08
-18.55
-18.62
-18.16
-16.28
-12.74
-7.95
-2.75
2.08
6.21
9.8
13.27
16.92
20.66
24.01
26.48
27.83
28.27
28.29
28.37
28.66
28.85
28.28
26.31
22.65
17.58
11.86
6.36
1.77
-1.65
-4.08
-5.91
-7.42
-8.65
-9.37
-9.3
-8.31
-6.42
-3.68
0.03
5.05
11.74
20.14
29.62
39
46.79
51.73
53.12
50.92
45.46
37.2
26.61
14.21
0.9
-12.03
-23.08
-31.02
-35.42
-36.77
-36.13
-34.37
-31.65
-27.32
-20.64
-11.65
-1.7
6.91
12.05
13.14
11.78
11.19
14.54
23.11
35.32
47.31
54.6
54.42
47.04
35.63
24.86
19.05
20.75
30.25
45.69
63.45
78.54
85.35
79.09
57.59
22.74
-19.44
-60.73
-93.72
-114.65
-124.55
-128
-130.49
-135.75
-144.66
-155.74
-166.66
-175.47
-180.96
-182.17
-178.14
-167.99
-151.5
-129.7
-104.89
-79.99
-57.54
-38.9
-24.04
-11.96
-1.38
8.65
18.47
27.95
36.75
44.47
50.66
54.82
56.4
55.05
50.84
44.46
37.19
30.53
25.83
23.87
24.64
27.33
30.57
32.9
33.18
31.03
26.77
21.29
15.6
10.45
6.2
2.86
0.28
-1.83
-3.97
-6.85
-11.13
-16.9
-23.14
-27.67
-27.68
-20.91
-6.72
13.37
36.07
57.4
74
84.18
88.11
87.45
84.55
81.77
80.87
82.79
87.56
94.31
101.45
107.05
109.33
107.1
100.21
89.54
76.78
63.72
51.72
41.15
31.41
21.23
9.37
-4.94
-21.58
-39.7
-57.94
-75.09
-90.55
-104.71
-118.79
-134.23
-151.84
-171.01
-189.47
-203.49
-208.96
-202.64
-183.44
-153.02
-115.54
-76.29
-40.07
-9.71
14.42
33.8
50.48
65.84
79.95
91.75
99.87
103.41
102.3
97.2
89.01
78.65
67.06
55.26
44.42
35.59
29.3
25.37
22.87
20.52
17.22
12.31
5.75
-1.97
-10.01
-17.4
-23.22
-26.78
-27.7
-25.98
-22.08
-16.85
-11.46
-7.31
-5.66
-7.43
-12.8
-21.15
-31.31
-42.07
-52.6
-62.5
-71.21
-77.51
-79.58
-75.83
-66.12
-52.48
-38.44
-27.16
-19.64
-14.09
-7.17
3.82
19.07
35.95
50.58
60.15
64.43
65.69
67.09
70.91
77.58
86.1
95.16
104.05
112.76
121.24
128.81
134
134.54
128.15
113.17
89.23
57.75
21.8
-14.67
-47.97
-75.92
-98.63
-118.28
-138.03
-160.3
-185.2
-209.89
-229.34
-238.26
-233.59
-216.09
-190.47
-163.64
-142.15
-129.74
-126.2
-127.97
-129.94
-127.71
-118.85
-102.93
-80.86
-53.9
-22.72
12.33
51.09
92.81
135.51
175.9
209.76
233.02
243.11
240.19
227.12
208.47
188.62
170.09
153.07
136.2
118.26
99.51
82.19
69.49
63.92
65.66
72.12
78.83
81.45
77.74
68.48
56.97
47.26
42.16
42.05
44.92
47.71
47.84
44.62
39.42
34.92
33.74
37.34
45.58
57.07
69.88
82.22
92.68
100.17
103.68
102.31
95.57
83.93
69.12
53.79
40.76
31.75
26.49
22.63
16.31
3.51
-18.37
-49.12
-85.16
-120.17
-146.85
-159.41
-155.64
-137.67
-111.1
-82.79
-58.4
-40.78
-29.64
-22.43
-15.71
-6.31
7.86
27.52
51.8
78.3
103.46
123.55
135.85
139.72
136.65
129.46
120.94
112.78
105.28
97.76
89.52
80.21
69.94
58.92
47.23
34.88
22.21
10.09
-0.11
-7.07
-10.08
-9.43
-6.14
-1.55
3.1
6.74
8.36
6.93
1.64
-7.82
-20.86
-35.98
-51.1
-64.08
-73.21
-77.6
-77.49
-74.12
-69.46
-65.44
-63.25
-62.81
-62.81
-61.42
-57.29
-50.11
-40.66
-30.18
-19.78
-10.04
-1.16
6.69
13.19
17.92
20.74
22.08
22.81
23.92
26.17
30.03
35.75
43.57
53.42
64.7
76.02
85.43
91.1
92.03
88.32
80.77
70.01
55.81
37.33
14.04
-12.96
-40.45
-63.71
-78.4
-82.44
-77.02
-66.11
-54.85
-47.63
-46.85
-52.79
-64.27
-79.53
-96.72
-114.11
-129.96
-142.64
-150.78
-153.64
-151.27
-144.44
-134.45
-122.89
-111.3
-101.15
-93.55
-89.07
-87.56
-88.18
-89.62
-90.62
-90.28
-88.33
-85.13
-81.34
-77.63
-74.34
-71.42
-68.47
-65.02
-60.64
-55.04
-47.95
-39.15
-28.46
-15.94
-2.04
12.42
26.45
39.27
50.48
60.13
68.41
75.38
80.79
84.19
85.2
83.77
80.32
75.63
70.58
65.9
62.1
59.35
57.62
56.65
56.15
55.81
55.55
55.53
56.14
57.81
60.81
65
69.87
74.72
78.96
82.5
85.78
89.57
94.51
100.75
107.73
114.24
118.99
121.24
121.18
119.99
119.24
119.91
121.31
120.68
113.87
97.02
68.61
30.4
-13.03
-56.05
-93.98
-124.02
-145.3
-158.45
-165.7
-171.38
-181.73
-203.12
-238.93
-286.53
-336.58
-375.91
-392.67
-381.51
-345.57
-294.6
-240.13
-190.79
-150.1
-117.13
-89.21
-64.44
-42.8
-25.72
-14.82
-10.7
-12.57
-18.51
-26.2
-33.73
-40.11
-45.01
-48.36
-49.96
-49.47
-46.81
-42.59
-38.16
-35.09
-34.32
-35.66
-37.76
-38.76
-37.16
-32.35
-24.66
-14.94
-4.08
7.23
18.37
28.57
36.91
42.55
45.09
44.87
42.9
40.44
38.53
37.51
36.93
35.73
32.84
27.79
21.1
14.21
8.95
6.78
8.21
12.65
18.73
25.01
30.54
34.97
38.46
41.19
43.11
43.79
42.67
39.18
33.08
24.54
14.21
3.16
-7.39
-16.32
-22.95
-27.23
-29.57
-30.52
-30.45
-29.3
-26.75
-22.38
-16.08
-8.07
1.12
10.83
20.41
29.35
37.27
43.99
49.51
53.98
57.62
60.57
62.86
64.51
65.62
66.45
67.36
68.58
70.07
71.51
72.49
72.7
72.09
70.77
68.86
66.31
62.91
58.35
52.44
45.12
36.58
27.22
17.76
9.17
2.62
-0.93
-1.04
1.83
6.47
11.22
14.57
15.56
13.91
9.83
3.72
-3.97
-12.75
-21.97
-30.72
-38.01
-43
-45.35
-45.19
-43.08
-39.55
-34.97
-29.53
-23.49
-17.47
-12.41
-9.22
-8.24
-8.93
-10.02
-10.19
-8.87
-6.59
-4.67
-4.36
-5.98
-8.58
-10.37
-9.72
-6.04
-0.16
6.13
10.93
13.19
13.04
11.61
10.31
10.11
11.13
12.65
13.71
13.6
12.36
10.65
9.37
9.12
9.8
10.73
11.05
10.32
8.76
7.18
6.52
7.33
9.5
12.3
14.73
15.95
15.55
13.6
10.52
6.85
3.09
-0.42
-3.38
-5.54
-6.7
-6.67
-5.37
-2.81
0.91
5.56
10.92
16.79
23
29.36
35.58
41.21
45.65
48.22
48.47
46.32
42.22
37.01
31.69
27.01
23.31
20.46
18.15
16.17
14.69
14.12
14.95
17.32
20.94
25.06
28.75
31.15
31.65
29.98
26.14
20.38
13.13
5.05
-3.11
-10.66
-17.08
-22.19
-25.93
-28.31
-29.11
-28.02
-24.84
-19.68
-13.22
-6.47
-0.48
4.03
6.92
8.55
9.53
10.34
11.15
11.84
12.13
11.76
10.68
9.08
7.3
5.71
4.49
3.57
2.6
1.17
-0.92
-3.42
-5.72
-6.98
-6.61
-4.62
-1.66
1.14
2.67
2.33
0.24
-2.76
-5.51
-6.98
-6.54
-4.07
0.14
5.49
11.14
16.06
19.16
19.55
16.89
11.64
5.02
-1.3
-5.83
-7.82
-7.39
-5.45
-3.11
-1.24
-0.23
0.01
-0.29
-0.81
-1.35
-1.66
-1.48
-0.53
1.31
3.91
6.94
9.89
12.35
14.12
15.29
16.23
17.38
19.03
21.24
23.73
26.06
27.82
28.85
29.39
29.95
31.06
32.96
35.48
38.08
40.1
41.05
40.77
39.34
37.01
33.96
30.27
26.06
21.56
17.18
13.46
10.86
9.44
8.73
7.94
6.35
3.83
1.05
-0.8
-0.56
2.15
6.6
11.18
14.01
13.67
9.65
2.38
-7.03
-16.94
-25.38
-30.3
-29.99
-23.78
-12.62
0.98
13.76
23.07
27.89
29.12
28.71
28.46
28.99
29.86
30.24
29.86
29.1
28.49
27.79
25.78
20.78
11.89
-0.17
-13.11
-24.03
-30.8
-32.85
-31.1
-27.3
-23.18
-20.2
-19.66
-22.91
-31.3
-45.49
-64.76
-86.66
-107.49
-123.47
-132.25
-133.84
-130.63
-126.34
-124.5
-126.92
-133.12
-140.71
-146.67
-148.62
-145.67
-138.31
-127.7
-114.75
-99.68
-82.25
-62.24
-39.98
-16.5
6.86
28.82
48.54
65.61
79.79
90.79
98.21
101.76
101.63
98.57
93.78
88.5
83.53
79.02
74.57
69.64
63.91
57.48
50.69
43.88
37.22
30.71
24.4
18.51
13.36
9.1
5.52
2.02
-2.01
-6.84
-12.19
-17.44
-21.89
-24.99
-26.46
-26.11
-23.86
-19.8
-14.35
-8.44
-3.23
0.1
0.72
-1.8
-7.56
-16.49
-28.21
-41.85
-55.91
-68.31
-76.97
-80.41
-78.29
-71.52
-61.86
-51.38
-41.86
-34.67
-30.64
-30.19
-33.22
-38.92
-45.7
-51.45
-54.26
-53.19
-48.87
-43.47
-39.9
-40.53
-46.1
-55.36
-65.58
-73.8
-77.91
-77.17
-71.87
-62.86
-51.12
-37.83
-24.52
-13.02
-4.89
-0.61
0.83
1.66
4.19
9.67
17.76
27
35.93
44.04
51.91
60.46
70.01
79.8
88.36
94.4
97.63
98.85
99.36
100.02
100.71
100.42
97.9
92.43
84.16
74.02
63.25
53.04
44.47
38.44
35.67
36.4
40.11
45.49
50.74
54.19
54.85
52.61
47.96
41.57
33.95
25.4
16.26
7.1
-1.3
-8.22
-13.32
-16.82
-19.37
-21.78
-24.7
-28.39
-32.71
-37.26
-41.62
-45.55
-49.1
-52.36
-55.23
-57.12
-56.82
-52.97
-44.61
-31.93
-16.48
-0.75
12.67
22.09
27.34
29.56
30.47
31.42
32.88
34.48
35.52
35.54
34.55
32.76
30.22
26.65
21.82
15.97
10.21
6.23
5.58
8.82
15.12
22.54
28.83
32.39
32.72
30.28
25.99
20.71
15.02
9.35
4.12
-0.15
-3.02
-4.31
-4.25
-3.35
-2.21
-1.29
-0.78
-0.64
-0.66
-0.62
-0.32
0.33
1.23
2.15
2.86
3.24
3.37
3.51
3.82
4.28
4.57
4.21
2.7
-0.35
-5.21
-11.97
-20.44
-29.99
-39.5
-47.62
-53.16
-55.54
-54.95
-52.09
-47.53
-41.37
-33.04
-21.82
-7.62
8.53
24.46
37.44
45.27
46.99
43.28
36.05
27.63
20
14.3
10.78
9.14
8.92
9.81
11.65
14.39
17.94
22.15
26.76
31.42
35.8
39.53
42.37
44.21
45.07
45.07
44.28
42.72
40.3
37.02
33.04
28.68
24.3
20.06
15.92
11.68
7.2
2.54
-2.01
-6.18
-10.02
-13.94
-18.62
-24.65
-32.09
-40.44
-48.68
-55.64
-60.41
-62.52
-62.01
-59.27
-54.81
-49.12
-42.63
-35.8
-29.2
-23.57
-19.69
-18.02
-18.45
-20.17
-21.89
-22.42
-21.25
-18.76
-16.04
-14.24
-14.06
-15.33
-17.37
-19.38
-20.95
-22.28
-23.92
-26.33
-29.59
-33.26
-36.64
-39.19
-40.92
-42.6
-45.5
-50.74
-58.49
-67.43
-74.93
-77.98
-74.44
-63.91
-47.78
-28.32
-7.6
13.34
34.34
55.34
75.51
92.92
105.1
110.08
107.22
97.13
81.42
62.23
42.21
24.63
12.73
8.71
12.21
19.82
25.94
25.24
15.25
-2.19
-21.6
-36.46
-41.93
-36.77
-23.47
-7.15
6.23
11.73
7.02
-6.55
-24.11
-38.27
-41.45
-28.39
1.87
45.39
93.98
137.28
165.94
174.84
165.47
145.86
127.52
120.41
128.09
146.01
163.94
171.59
163.84
142.75
114.99
86.91
60.6
33.23
-0.05
-42.34
-92.48
-145.71
-196.17
-239.8
-275.66
-305.5
-332.09
-357.42
-381.48
-401.94
-414.93
-416.52
-404.26
-378.11
-340.07
-292.94
-239.03
-179.65
-115.69
-48.74
18.36
82.2
140.35
192.73
241.79
291.26
343.99
400.28
457.27
509.63
551.34
577.16
583.94
570.88
539.35
492.02
432.02
362.48
286.88
209.8
137.36
76.61
33.8
12.25
10.84
24.1
43.9
61.85
71.34
68.34
51.55
22
-17.26
-61.66
-105.86
-144.97
-175.66
-196.89
-209.62
-216
-218.46
-219.17
-219.74
-221.05
-223
-224.27
-222.48
-215.02
-200.28
-178.8
-153.54
-128.8
-108.27
-93.45
-83.22
-74.62
-64.4
-50.52
-32.9
-13.34
5.73
22.34
35.6
45.49
52.41
56.64
58.19
57.1
53.36
47.63
41.24
35.96
33.43
34.75
40.21
49.42
61.18
72.66
80.84
83.45
79.68
70.28
57.27
43.45
31.88
24.96
21.4
18.47
13.23
3.92
-9.74
-26.83
-45.62
-63.8
-79.35
-94.53
-111.79
-132.02
-153.59
-174.08
-192.47
-209.75
-227.95
-248.6
-275.87
-310.7
-350.12
-388.47
-421.56
-449.76
-477.28
-508.67
-517.48
-483.89
-403.68
-293.51
-178.51
-78.82
-4.39
44.63
74.88
95.06
105.51
104.18
87.32
55.47
15.38
-21.51
-42.83
-39.81
-10.35
37.95
94.81
150.25
199.73
243.59
283.56
319.76
349.88
370.23
375.82
364.7
338.84
303.73
265.52
228.34
193.64
161.21
130.72
101.68
74.95
52.53
37.07
30.35
32.06
39.68
49.28
56.81
58.9
54.13
43.31
29.3
15.79
5.76
0.51
-0.63
0.35
1.14
0.16
-3.06
-7.99
-13.75
-19.68
-25.44
-30.67
-34.56
-35.99
-34
-28.6
-21.08
-13.67
-8.5
-6.56
-7.09
-8.06
-7.32
-3.83
1.69
6.99
9.35
6.88
-0.6
-11.37
-22.52
-31.01
-34.67
-32.9
-26.77
-18.51
-10.86
-6.1
-5.3
-7.9
-11.78
-13.92
-11.51
-3.22
10.12
25.62
39.33
47.8
49.47
45.13
37.39
29.35
23.2
19.59
17.75
16.42
14.68
12.43
10.14
8.28
6.76
4.99
2.18
-2.02
-7.22
-12.44
-16.71
-19.61
-21.54
-23.5
-26.61
-31.51
-38.1
-45.5
-52.33
-56.94
-57.83
-54.03
-45.43
-32.99
-18.63
-4.63
7.09
15.7
21.65
26.3
31.2
37.2
44.22
51.35
57.52
62.12
65.28
67.74
70.31
73.3
76.37
78.63
79.14
77.37
73.43
67.98
61.92
55.96
50.33
44.81
38.73
31.34
22.02
10.51
-2.86
-17.14
-30.85
-42.23
-49.69
-52.16
-49.4
-42.05
-31.46
-19.44
-7.86
1.57
7.61
9.58
7.48
1.91
-5.95
-14.7
-22.88
-29.36
-33.48
-35.16
-34.8
-33.04
-30.53
-27.69
-24.63
-21.15
-17.01
-12.07
-6.47
-0.68
4.69
9.03
11.94
13.25
13.02
11.34
8.3
3.96
-1.57
-8
-14.79
-21.17
-26.35
-29.65
-30.72
-29.59
-26.67
-22.56
-17.92
-13.26
-8.9
-4.95
-1.36
2.02
5.3
8.48
11.47
14.05
15.98
17.14
17.48
17.13
16.27
15.06
13.6
11.96
10.2
8.47
6.91
5.58
4.37
3.02
1.22
-1.22
-4.34
-7.94
-11.78
-15.55
-19.09
-22.21
-24.72
-26.28
-26.51
-25.06
-21.76
-16.82
-10.71
-4.11
2.32
8.07
12.83
16.44
18.81
19.84
19.42
17.54
14.28
9.98
5.13
0.34
-3.73
-6.57
-7.87
-7.63
-6.06
-3.52
-0.43
2.93
6.34
9.72
13.04
16.3
19.39
22.1
24.06
24.71
23.52
20.13
14.65
7.71
0.43
-5.86
-9.98
-11.25
-9.65
-5.78
-0.66
4.63
9.2
12.58
14.72
15.87
16.36
16.46
16.26
15.78
15.01
14.04
13.01
12.14
11.63
11.59
12.04
12.93
14.1
15.38
16.6
17.61
18.32
18.64
18.5
17.76
16.26
13.83
10.42
6.08
1.05
-4.2
-9.03
-12.73
-14.69
-14.54
-12.35
-8.57
-3.94
0.77
5.03
8.6
11.54
14.03
16.18
17.9
18.92
18.98
17.99
16.21
14.22
12.76
12.24
12.74
13.67
14.13
13.39
11.04
7.26
2.54
-2.55
-7.35
-11.04
-12.51
-10.77
-5.56
1.9
9.04
12.84
11.27
4.43
-5.35
-14.72
-20.83
-22.66
-21.13
-18.26
-16.11
-16.03
-18.52
-23.59
-31.09
-40.67
-51.54
-62.62
-72.4
-79.55
-83.28
-83.36
-80.24
-74.74
-67.88
-60.65
-53.83
-47.87
-42.91
-38.77
-35.16
-31.84
-28.73
-25.81
-23.14
-20.59
-17.78
-14.04
-8.53
-0.56
10.11
23.14
37.67
52.72
67.55
81.93
95.9
109.5
122.46
134.18
144.17
152.53
160.03
167.7
176.1
184.43
190.42
191.08
183.81
167.66
143.84
115.4
86.13
59.26
36.56
17.85
1.22
-16.56
-39.36
-71.03
-114.56
-170.72
-236.62
-305.09
-365.6
-407.18
-422.26
-409.63
-375.04
-328.71
-281.24
-239.79
-206.74
-180.98
-160.61
-145.01
-134.93
-130.79
-131.03
-131.46
-126.85
-113.38
-90.42
-60.71
-28.75
1.35
27.42
49.5
68.86
86.55
102.61
116
125.33
129.65
129.07
124.73
118.26
111.21
104.47
98.17
91.72
84.32
75.3
64.66
53.27
42.82
35.63
33.92
39.17
51.41
69.02
88.98
107.75
122.25
130.67
132.81
129.66
122.78
113.59
103.01
91.6
79.82
68.29
57.68
48.51
40.86
34.32
28.27
22.12
15.65
9.05
2.84
-2.48
-6.65
-9.81
-12.51
-15.47
-19.32
-24.39
-30.57
-37.43
-44.33
-50.59
-55.62
-58.9
-60.08
-58.98
-55.73
-50.74
-44.62
-38.05
-31.48
-25.04
-18.63
-12.1
-5.52
0.74
6.12
10.12
12.57
13.73
14.14
14.4
14.91
15.82
16.99
18.19
19.25
20.18
21.06
22.02
23.02
23.89
24.35
24.12
23.05
21.16
18.54
15.29
11.5
7.21
2.51
-2.41
-7.3
-11.96
-16.37
-20.69
-25.26
-30.34
-35.97
-41.88
-47.48
-51.99
-54.64
-54.89
-52.52
-47.79
-41.33
-33.95
-26.36
-18.98
-11.89
-4.91
2.16
9.34
16.45
23.16
29.16
34.34
38.73
42.51
45.81
48.72
51.23
53.35
55.1
56.54
57.68
58.47
58.74
58.25
56.77
54.15
50.42
45.76
40.48
34.89
29.27
23.82
18.6
13.59
8.71
3.92
-0.74
-5.11
-8.99
-12.22
-14.9
-17.39
-20.23
-24
-28.98
-35.03
-41.5
-47.39
-51.61
-53.22
-51.73
-47.21
-40.35
-32.25
-24.22
-17.34
-12.15
-8.54
-5.9
-3.44
-0.63
2.63
6.02
9.04
11.33
12.87
13.98
15.12
16.69
18.83
21.45
24.33
27.21
29.88
32.18
33.93
34.92
34.97
34.02
32.16
29.67
26.93
24.29
21.95
19.91
18
15.98
13.69
11.07
8.19
5.15
1.99
-1.43
-5.38
-10.19
-16.1
-22.99
-30.27
-36.95
-41.86
-43.99
-42.87
-38.68
-32.2
-24.49
-16.53
-9
-2.11
4.14
9.9
15.25
20.16
24.58
28.57
32.23
35.72
39.13
42.37
45.19
47.33
48.63
49.08
48.79
47.82
46.08
43.24
38.85
32.53
24.1
13.77
2.06
-10.23
-22.26
-33.26
-42.58
-49.8
-54.73
-57.42
-58.26
-57.89
-57.19
-56.91
-57.47
-58.71
-59.94
-60.12
-58.3
-53.91
-46.9
-37.77
-27.31
-16.45
-6.09
3.05
10.47
15.97
19.69
22.08
23.67
24.92
26.01
26.92
27.49
27.6
27.32
26.83
26.34
25.98
25.76
25.6
25.42
25.24
25.12
25.16
25.38
25.79
26.31
26.91
27.48
27.89
27.98
27.53
26.42
24.59
22.04
18.76
14.6
9.32
2.64
-5.53
-14.91
-24.85
-34.37
-42.46
-48.28
-51.43
-52.03
-50.57
-47.85
-44.69
-41.7
-39.16
-37
-34.94
-32.64
-29.95
-26.93
-23.81
-20.83
-18.12
-15.66
-13.28
-10.77
-8.02
-5.06
-2.04
0.83
3.32
5.29
6.67
7.45
7.67
7.35
6.48
5.02
3.01
0.55
-2.1
-4.64
-6.88
-8.81
-10.73
-13.12
-16.45
-20.94
-26.42
-32.22
-37.32
-40.63
-41.25
-38.72
-33.13
-25.13
-15.7
-5.96
3.1
10.8
16.93
21.67
25.47
28.78
31.95
35.08
38.08
40.79
43.08
44.87
46.1
46.7
46.62
45.84
44.48
42.73
40.82
38.9
36.9
34.64
31.85
28.34
24.06
19.13
13.76
8.18
2.64
-2.61
-7.34
-11.39
-14.7
-17.41
-19.77
-22.03
-24.35
-26.64
-28.57
-29.66
-29.39
-27.36
-23.33
-17.29
-9.45
-0.26
9.66
19.59
28.77
36.59
42.64
46.79
49.09
49.79
49.29
48.09
46.77
45.75
45.14
44.61
43.44
40.82
36.26
29.83
22.36
15.11
9.35
5.85
4.57
4.65
4.64
3.06
-1.16
-8.43
-18.38
-30.1
-42.4
-54.03
-63.87
-71.07
-75.09
-75.76
-73.4
-68.68
-62.49
-55.64
-48.63
-41.57
-34.25
-26.32
-17.63
-8.33
1.11
9.96
17.47
23.05
26.37
27.46
26.6
24.31
21.21
18.04
15.5
14.21
14.55
16.53
19.77
23.6
27.32
30.42
32.72
34.35
35.49
36.21
36.35
35.54
33.49
30.16
25.83
21.05
16.39
12.25
8.56
5.03
1.27
-2.99
-7.73
-12.64
-17.1
-20.42
-21.96
-21.39
-18.71
-14.17
-8.22
-1.4
5.81
13.03
19.98
26.49
32.24
37.02
40.78
43.7
46.22
49.02
52.94
58.73
66.76
76.06
85.16
92.58
97.35
99.14
98.29
95.53
91.51
86.76
80.44
72.09
61.88
50.09
36.06
17.99
-6.53
-39.35
-80.29
-128.84
-182.2
-236.03
-285.7
-327.67
-359.57
-380.37
-390.17
-389.85
-383.27
-373.43
-361.14
-344.88
-322.55
-292.4
-254.59
-210.96
-147.79
-60.83
43.48
150.46
246.22
323.46
381.88
427.12
464.38
495.7
518.18
528.47
524.96
509.02
479.01
438.21
391.35
342.54
294.66
246.98
198.07
147
94.01
39.86
-13.76
-65.48
-114.29
-158.94
-199.21
-234.44
-263.32
-283.95
-294.75
-294.41
-283.22
-263.16
-237.23
-209.17
-181.83
-156.66
-134
-114.14
-97.73
-86.34
-81.6
-84.01
-92.82
-106.49
-123.86
-144.87
-170.21
-199.75
-231.37
-260.75
-282.61
-293.01
-291.09
-279.14
-260.93
-239.44
-215.37
-187.6
-154.88
-117.53
-78.01
-40.13
-6.94
20.85
44.86
67.8
91.76
117.32
143.69
169.5
193.3
213.82
229.84
240.26
244.76
244.64
243.16
244.63
252.57
267.5
287.01
307.1
324.04
335.6
340.92
339.74
331.38
314.69
287.36
248.71
200.75
147.52
92.95
39.92
-8.94
-50.03
-78.66
-93.31
-95.49
-90.1
-84.91
-88.93
-108.95
-145.74
-193.08
-240.39
-281.31
-312.62
-332.37
-338.79
-331.49
-312.55
-286.67
-260.41
-241.34
-241.35
-269.35
-325.6
-401.32
-483.1
-557.67
-614.47
-647.82
-622.94
-529.45
-391.78
-254.76
-151.1
-84.29
-36.77
12.25
73.73
140.16
199.19
238.07
252.66
248.95
237.33
226.08
219
216.63
216.46
214.09
206.02
191.95
173.91
152.94
128.13
98.53
65.45
32.75
3.4
-21.28
-40.3
-52.86
-59.21
-60.82
-59.67
-57.51
-55.56
-55.09
-56.86
-59.7
-61.1
-59.13
-54.1
-48.31
-44.35
-43.59
-45.73
-49.94
-55.82
-64.44
-77.84
-97.35
-121.49
-145.38
-162.16
-165.68
-153.36
-126.69
-90.38
-49.63
-8.17
32.64
73.43
115.77
161.52
211.65
265.65
321.02
372.89
414.69
439.78
443.69
425.8
389.65
341.9
290.46
242.94
205.75
183.42
177.7
186.38
203.14
219.19
226.59
222.06
209.09
196.71
194.99
209.88
240.01
276.77
308.26
324.16
319.03
292.63
247.59
186.96
112.19
23.38
-78.83
-191.01
-305.67
-412.03
-498.79
-557.68
-586.3
-588.62
-572.91
-548.18
-520.77
-492.79
-462.92
-428.88
-389.84
-347.25
-304.16
-263.38
-226.08
-191.37
-157.14
-121.45
-83.43
-43.62
-3.35
36.17
74.3
110.95
146
178.59
206.94
228.77
242.2
246.59
242.94
233.53
221.18
208.42
197.11
188.33
182.64
180.14
180.62
183.44
187.57
191.91
195.55
198.05
199.44
200.2
201.02
202.88
207
214.59
226.31
241.37
257.15
269.52
274.11
268.11
251.46
226.99
199.12
172.07
148.51
129.26
113.87
101.54
91.8
84.69
80.48
79.29
80.77
83.86
86.82
87.49
83.77
74.36
59.18
39.17
15.43
-11.72
-42.89
-78.72
-118.31
-158.14
-192.32
-214.69
-221.5
-213.34
-194.98
-173.46
-155.24
-143.86
-139.29
-138.96
-139.48
-138.28
-134.07
-126.63
-116
-102.2
-85.27
-65.73
-44.98
-25.19
-8.65
3.08
9.77
12.55
13.26
13.48
13.69
12.95
9.27
0.59
-14.29
-35.09
-60.17
-86.97
-112.82
-135.6
-154.16
-168.41
-179.28
-188.13
-196.22
-204.06
-211.05
-215.62
-215.9
-210.57
-199.43
-183.54
-164.92
-145.84
-128.2
-113
-100.1
-88.3
-75.84
-61.11
-43.27
-22.52
0.21
23.78
47.24
69.75
90.12
106.38
116
116.74
107.79
90.62
69.14
48.94
36.04
35.36
49.27
76.64
112.67
150.02
181.03
200.32
206.64
202.93
194.53
186.55
181.78
180.1
179.55
177.98
174.18
167.87
158.94
146.71
129.89
107.31
78.84
45.82
10.89
-22.94
-53.1
-78.05
-97.4
-111.96
-123.37
-133.66
-144.65
-157.36
-171.52
-185.43
-196.41
-201.72
-199.62
-190.39
-176.44
-161.59
-149.58
-142.55
-140.2
-140.01
-138.62
-133.43
-123.72
-110.53
-95.32
-78.54
-59.09
-35.01
-5.14
29.48
65.62
99.13
126.71
147.16
161.48
171.66
179.36
185.42
189.7
191.95
192.09
190.26
186.75
181.86
175.77
168.57
160.77
152.48
143.86
134.67
124.61
113.98
103.93
96.08
91.36
90.1
90.43
89.98
86.05
76.73
61.69
42.34
21.23
0.49
-17.48
-32.98
-47.22
-62.98
-84.19
-115.05
-158.81
-216.62
-288.11
-369.77
-459.26
-545.73
-615.04
-657.47
-673.37
-669.77
-651.03
-628.58
-595.68
-547.05
-482.86
-409.23
-334.84
-264.03
-200.71
-144.45
-92.29
-39.39
15.42
71.16
125.32
175.08
218.58
255.16
286.22
313.33
339
363.55
387.1
410.05
432.59
454.27
473.66
489.95
501.48
506.72
503.23
488.94
464.49
431.57
391.49
344.22
290.18
227.89
154.68
67.66
-34.27
-144.39
-250.57
-339.09
-398.39
-419.75
-402.66
-354.77
-289.15
-221.15
-158.05
-101.29
-49.59
-0.12
53.69
117.13
191.94
275.17
356.88
430.13
488.75
528.08
521.28
456.55
343.78
211.87
112.35
51.52
23.16
19.83
28.04
40.17
54.02
67.49
77.36
79.92
69.92
49.84
24.58
-2.2
-28.01
-49.38
-64.43
-73.47
-79.19
-87.52
-99.72
-114.7
-130.77
-145.52
-155.9
-160.99
-163.14
-167.21
-179.67
-202.25
-232.94
-267.67
-301.43
-329.64
-349.73
-361.14
-364.25
-359.76
-346.64
-324
-292.91
-256.76
-220.31
-187.92
-161.75
-141.12
-123.56
-105.97
-86.63
-65.77
-44.61
-24.02
-3.55
18.26
42.89
70.78
100.96
131.43
159.73
183.55
201.04
210.99
213.08
208.05
197.65
184.06
169.13
153.64
137.33
119.49
99.78
78.87
58.28
39.72
24.16
11.56
1.1
-8.37
-17.84
-28.22
-40.38
-55.3
-73.77
-95.93
-120.72
-145.88
-168.49
-185.88
-196.68
-201.26
-201.54
-200.12
-199
-198.6
-197.38
-192.29
-180.08
-158.63
-128.01
-90.57
-50.11
-10.67
24.67
54.22
77.46
94.42
105.23
110.13
109.84
105.98
100.94
97.23
96.48
98.87
103.23
107.74
110.97
112.43
112.63
112.56
113.08
114.66
117.31
120.88
125.15
129.74
133.89
136.35
135.69
130.83
121.66
109.31
95.83
83.48
73.93
67.75
64.45
62.89
61.87
60.57
58.66
56.21
53.33
50.08
46.28
41.54
35.39
27.45
17.68
6.61
-4.62
-14.46
-21.41
-24.62
-24.34
-22.11
-20.5
-22.27
-29.41
-42.18
-58.75
-75.65
-89
-95.92
-95.47
-88.76
-78.2
-66.3
-54.8
-44.29
-34.59
-25.32
-16.43
-8.38
-1.99
1.88
2.71
0.64
-3.48
-8.14
-11.51
-11.97
-8.62
-1.43
8.84
21.07
34.13
47.11
59.3
70.11
78.88
85.1
88.5
89.19
87.69
84.74
81.02
77.06
73.06
69
64.74
60.1
54.99
49.42
43.52
37.45
31.36
25.28
19.13
12.8
6.29
-0.11
-6.01
-11.02
-15.11
-18.77
-22.87
-28.24
-35.2
-43.21
-50.97
-56.76
-59.04
-56.91
-50.42
-40.48
-28.66
-16.69
-6.16
1.85
6.94
9.3
9.6
8.71
7.47
6.51
6.26
6.84
8.18
10.04
12.03
13.77
14.89
15.19
14.67
13.53
12.09
10.72
9.67
8.97
8.4
7.59
6.19
3.95
0.91
-2.69
-6.41
-9.68
-11.97
-12.93
-12.56
-11.28
-9.8
-8.86
-8.82
-9.41
-9.82
-9.03
-6.35
-1.82
3.75
9.03
12.85
14.6
14.47
13.16
11.51
10.06
8.95
8.17
7.74
7.91
8.92
10.64
12.42
13.16
11.78
7.85
1.85
-4.95
-10.94
-14.84
-16.22
-15.5
-13.75
-12.1
-11.34
-11.55
-12.31
-13.01
-13.26
-13.08
-12.95
-13.48
-15.15
-18.11
-22.22
-27.19
-32.72
-38.46
-43.99
-48.75
-52.16
-53.82
-53.71
-52.17
-49.83
-47.33
-45.27
-44.11
-44.3
-46.31
-50.54
-57.02
-65.28
-74.24
-82.56
-89.08
-93.18
-94.82
-94.35
-92.12
-88.32
-82.95
-76.05
-67.93
-59.1
-50.26
-42.04
-35
-29.59
-26.13
-24.58
-24.45
-24.84
-24.87
-24.23
-23.49
-23.85
-26.46
-31.57
-38.17
-44.35
-48.02
-47.87
-43.68
-36.17
-26.47
-15.58
-4.15
7.36
18.47
28.57
37.01
43.28
47.22
49.01
49.01
47.58
44.84
40.63
34.5
25.92
14.62
1.11
-12.98
-24.8
-30.92
-28.25
-15.01
8.73
40.98
78.33
116.44
150.66
176.6
190.97
192.42
182.12
163.52
141.21
119.1
98.95
79.94
59.63
35.65
7.22
-24.54
-57.34
-88.94
-117.89
-143.46
-164.9
-180.91
-189.7
-189.79
-180.97
-164.67
-143.49
-120.33
-97.44
-76.13
-56.88
-39.86
-25.16
-12.9
-3
4.83
10.91
15.38
18.14
18.92
17.66
14.66
10.59
6.22
2.1
-1.51
-4.65
-7.4
-9.77
-11.67
-12.98
-13.71
-14
-14.09
-14.12
-13.98
-13.31
-11.57
-8.33
-3.48
2.66
9.33
15.61
20.66
23.98
25.45
25.42
24.51
23.44
22.88
23.15
24.2
25.66
26.96
27.65
27.58
27.02
26.51
26.66
27.88
30.23
33.45
37.06
40.52
43.27
44.81
44.85
43.55
41.59
40.16
40.55
43.59
49.29
56.84
64.94
72.5
79.02
84.59
89.56
94.03
97.65
99.71
99.59
97.08
92.57
86.85
80.82
75.15
70.06
65.42
60.82
55.83
50.13
43.67
36.67
29.6
23.06
17.64
13.71
11.17
9.19
6.34
0.9
-8.41
-21.69
-37.58
-53.74
-67.7
-77.7
-82.98
-83.61
-79.93
-72.36
-61.51
-48.57
-35.23
-23.28
-13.77
-6.56
-0.41
6.24
14.42
24.2
34.86
45.39
55.03
63.43
70.52
76.36
81.05
84.63
86.67
85.96
80.6
68.78
49.85
25.14
-2.27
-28.9
-52.36
-72.32
-89.99
-106.87
-123.36
-138.3
-149.81
-156.49
-158.22
-155.9
-150.49
-142.37
-131.39
-117.54
-101.56
-84.56
-67.01
-47.88
-24.66
5.29
42.93
86.26
130.41
169.06
196.43
209.06
206.66
191.95
169.79
145.99
125.7
111.89
104.48
100.61
95.88
86.38
70.31
48.79
25.21
3.57
-13.11
-23.66
-28.62
-29.51
-28.3
-27.09
-27.72
-31.59
-39.59
-52.55
-71.23
-96.8
-131.1
-176.33
-233.48
-300.2
-369.52
-430.72
-473.61
-491.11
-481.53
-448.47
-398.97
-340.77
-279.66
-218.5
-158.15
-101.37
-50.74
-6.51
34.73
78.52
128.65
184.32
239.04
282.7
301.61
286.65
237.78
163.97
78.57
-5.91
-80.36
-138.98
-178.65
-204.43
-224.49
-246.62
-275.41
-311.77
-353.79
-397.37
-437.33
-435.43
-367.38
-233.94
-62.7
110.06
259.44
376.88
464.05
526.09
565.45
583.6
580.35
558.3
524.22
486.07
448.9
413.2
375.56
334.89
286.15
225.77
154.66
78.29
3.53
-64.91
-125.77
-180.6
-232.36
-287.32
-351.22
-426.08
-508.37
-589.77
-659.74
-708.7
-730.95
-726.33
-701.69
-667.27
-632.29
-601.87
-576.75
-555.12
-534.97
-515.45
-496.85
-480.19
-465.58
-451.38
-434.72
-412.81
-384.12
-348.67
-307.78
-263.1
-216
-167.23
-116.96
-65.26
-12.57
39.98
90.68
137.58
179.11
214.48
244.02
269.06
291.65
313.99
338.04
365.08
395.6
429.25
465.19
502.22
539.06
574.59
607.92
638.48
666.23
691.63
715.43
738.09
759.07
776.46
787.12
787.51
774.87
748.38
709.55
661.87
609.84
557.66
508.2
462.61
420.51
380.61
341.44
301.85
261.27
219.6
177.17
134.49
92.3
51.47
13.1
-21.78
-52.41
-78.46
-100.02
-117.41
-130.99
-140.82
-146.78
-148.55
-146.01
-139.34
-129.25
-116.82
-103.34
-89.96
-77.37
-65.66
-54.43
-43.1
-31.3
-19.06
-6.82
4.76
15.13
23.98
31.2
36.72
40.35
41.92
41.36
38.94
35.19
30.68
25.61
19.65
12.17
2.7
-8.6
-20.74
-32.24
-41.64
-48.02
-51.22
-51.79
-50.61
-48.6
-46.5
-44.76
-43.48
-42.52
-41.51
-40.14
-38.33
-36.46
-35.28
-35.71
-38.41
-43.41
-50.09
-57.32
-63.96
-69.32
-73.36
-76.76
-80.61
-86.11
-94.17
-105.15
-118.64
-133.56
-148.27
-160.99
-170.29
-175.4
-176.33
-173.72
-168.44
-161.21
-152.39
-142.07
-130.17
-116.74
-102.09
-86.72
-71.26
-56.25
-41.99
-28.46
-15.46
-2.66
10.08
22.66
34.73
45.79
55.4
63.35
69.68
74.72
78.95
82.84
86.72
90.64
94.29
97.05
98.16
96.84
92.55
85.09
74.73
62.29
48.98
36.2
25.16
16.48
10.02
4.94
0.04
-5.76
-13.01
-21.53
-30.49
-38.68
-44.85
-47.99
-47.47
-43.13
-35.23
-24.45
-11.9
0.97
12.62
21.82
28.06
31.82
34.39
37.42
42.1
48.64
56.05
62.51
65.95
64.59
57.28
43.6
23.67
-1.82
-31.61
-63.93
-96.61
-127.73
-156.25
-182.7
-208.92
-236.97
-267.44
-298.24
-324.59
-340.62
-341.73
-326.58
-297.7
-260.37
-220.72
-183.96
-153.5
-131.28
-118.19
-114.25
-118.16
-126.75
-135.17
-138.49
-133.8
-121.76
-106.28
-92.43
-84.05
-81.79
-83.19
-83.99
-80.12
-69.27
-51.57
-29.23
-5.42
16.87
35.86
51.42
64.88
78.34
93.64
111.36
130.5
148.92
164.36
175.51
182.22
185.06
184.53
180.77
173.64
163.27
150.41
136.39
122.75
110.82
101.28
94.02
88.3
83.05
77.38
70.88
63.79
56.83
50.81
46.14
42.44
38.63
33.35
25.65
15.62
4.4
-6.33
-15.22
-22.12
-28.23
-35.78
-47.04
-63.46
-84.93
-109.38
-132.93
-150.69
-158.12
-152.73
-135.46
-110.87
-85.91
-67.52
-60.08
-63.95
-75.81
-90.45
-103.04
-110.77
-113.09
-110.88
-105.33
-97.13
-86.49
-73.52
-58.65
-42.6
-26.12
-9.61
7.09
24.44
42.74
61.64
80.01
96.21
108.59
116.06
118.35
116.02
110.24
102.34
93.45
84.22
74.79
64.9
54.3
43.01
31.7
21.47
13.51
8.61
6.77
7.27
8.87
10.36
10.87
10.04
8.02
5.26
2.4
-0.01
-1.63
-2.55
-3.2
-4.19
-6
-8.66
-11.8
-14.72
-16.86
-17.95
-18.19
-17.95
-17.6
-17.3
-17.03
-16.7
-16.26
-15.8
-15.32
-14.77
-13.97
-12.73
-10.87
-8.19
-4.46
0.68
7.53
16.15
25.93
35.4
42.29
44.07
38.61
24.78
2.64
-26.76
-61.64
-99.58
-137.35
-171.04
-196.74
-212.02
-217.37
-216.71
-216.29
-222.23
-238.05
-263.37
-294.9
-328.75
-362.62
-396.19
-429.59
-461.19
-486.2
-497.72
-489.41
-458.54
-407.39
-342.5
-272.08
-203.2
-140.16
-84.33
-35.27
7.98
45.98
78.85
106.54
129.19
147.3
161.71
173.57
184.32
195.65
209.67
229
256.51
294.53
343.44
400.29
458.14
507.01
536.43
539.03
513.56
465.82
407
349.83
304.33
275.09
260.87
256.56
256.13
255.01
251.11
244.32
235.4
225.07
213.75
201.8
189.77
178.23
167.22
155.6
141.19
121.51
95.08
62.44
26.39
-8.9
-39.52
-63.24
-80.26
-92.66
-103.01
-112.9
-122.2
-129.34
-132.47
-130.68
-124.71
-116.61
-108.93
-103.72
-102.08
-104.28
-110.04
-118.64
-128.75
-138.27
-144.5
-144.93
-138.23
-124.87
-107.05
-87.8
-69.9
-55.06
-43.67
-35.27
-29.16
-24.93
-22.5
-21.87
-22.85
-24.86
-27.11
-28.82
-29.52
-29.15
-28.01
-26.57
-25.25
-24.27
-23.7
-23.65
-24.47
-26.77
-31.21
-38.09
-47.05
-56.96
-66.14
-72.91
-76.05
-75.09
-70.37
-62.73
-53.22
-42.84
-32.35
-22.3
-13.06
-4.86
2.22
8.18
13.09
17.01
20.03
22.32
24.21
26.04
28.09
30.37
32.6
34.38
35.38
35.57
35.14
34.4
33.46
32.15
30.04
26.66
21.86
15.9
9.42
3.2
-2.22
-6.73
-10.64
-14.62
-19.33
-25.18
-32.14
-39.71
-46.94
-52.6
-55.5
-54.83
-50.38
-42.71
-32.96
-22.56
-12.77
-4.38
2.32
7.49
11.41
14.34
16.4
17.66
18.22
18.26
18.03
17.72
17.37
16.83
15.92
14.47
12.5
10.18
7.8
5.72
4.29
3.91
4.91
7.51
11.59
16.66
21.98
26.79
30.67
33.56
35.62
36.86
36.92
35.15
30.91
24.13
15.48
6.26
-2.06
-8.38
-12.24
-13.83
-13.63
-12.15
-9.65
-6.26
-2.1
2.64
7.69
12.82
17.97
23.22
28.66
34.33
40.3
46.8
54.25
63.11
73.54
85.04
96.34
105.78
112.02
114.57
114.07
111.89
109.46
107.58
106.2
104.64
102.19
98.51
93.93
89.16
84.91
81.49
78.74
76.09
72.9
68.77
63.63
57.62
50.96
43.77
36.09
28.02
19.9
12.37
6.21
2.05
0.13
0.11
1.22
2.51
3.18
2.85
1.56
-0.23
-1.97
-3.11
-3.29
-2.36
-0.43
2.25
5.37
8.76
12.52
17.2
23.81
33.62
47.75
66.55
89.26
114
138.18
159.23
175.13
184.75
187.73
184.07
173.87
157.24
134.59
106.89
75.82
43.42
11.52
-18.8
-47.41
-74.85
-101.76
-128.29
-153.89
-177.3
-196.81
-210.58
-217.04
-215.36
-205.81
-190.03
-170.77
-151.19
-133.94
-120.21
-109.53
-100.21
-90.17
-77.85
-62.73
-45.31
-26.67
-7.99
9.72
25.78
39.63
50.71
58.34
61.81
60.67
55.11
46.25
36.15
27.4
22.54
23.46
31
44.78
63.18
83.55
102.56
116.81
123.63
121.73
111.64
95.5
76.48
57.91
42.47
31.63
25.58
23.4
23.54
24.38
24.61
23.57
21.16
17.77
13.93
10.18
6.94
4.32
2
-0.68
-4.59
-10.27
-17.59
-25.62
-33.05
-38.9
-43.22
-47.22
-52.86
-61.92
-75.09
-91.46
-108.59
-122.93
-130.63
-128.58
-115.48
-92.69
-64.39
-36.62
-15.55
-5.38
-6.94
-17.68
-32.88
-47.59
-58.23
-63.26
-62.85
-58.12
-50.52
-41.53
-32.67
-25.44
-21.08
-20.17
-22.45
-26.98
-32.39
-37.29
-40.48
-41.24
-39.28
-34.87
-28.78
-22.02
-15.38
-9.16
-2.94
4.01
12.24
21.54
30.85
38.7
43.9
46.26
46.67
46.73
47.98
51.1
55.63
60.18
63.1
63.3
60.74
56.43
51.9
48.6
47.23
47.54
48.58
49.13
48.22
45.51
41.31
36.36
31.52
27.32
23.83
20.63
17.05
12.45
6.45
-0.97
-9.64
-19.37
-30.08
-41.76
-54.22
-66.87
-78.71
-88.62
-95.8
-100.11
-102.1
-102.53
-101.88
-99.96
-96.04
-89.32
-79.58
-67.42
-54.15
-41.23
-29.75
-20.1
-12.03
-5.03
1.36
7.43
13.3
19.01
24.65
30.26
35.79
41.1
45.91
49.88
52.74
54.28
54.47
53.41
51.29
48.43
45.18
41.92
39.05
36.87
35.47
34.71
34.21
33.44
31.96
29.57
26.35
22.58
18.6
14.6
10.59
6.46
2.11
-2.42
-6.88
-10.96
-14.36
-16.92
-18.64
-19.76
-20.64
-21.63
-22.96
-24.56
-26.03
-26.68
-25.79
-22.92
-18.09
-11.82
-4.97
1.69
7.74
13.29
18.82
24.85
31.64
38.99
46.3
52.87
58.17
62.15
65.34
68.69
73.24
79.77
88.51
99.16
111.08
123.57
136.18
148.85
161.94
176.16
192.67
212.88
238.12
268.82
303.67
339.27
370.67
392.76
402.17
398.43
384.07
363.51
341.3
320.77
303.51
289.84
279.58
272.72
269.34
269.24
271.43
274.2
275.42
273.24
266.49
254.91
238.95
219.42
197.22
173.09
147.74
121.9
96.46
72.43
50.77
32.25
17.23
5.61
-3.17
-9.98
-15.86
-21.91
-29.16
-38.43
-50.21
-64.52
-80.9
-98.45
-116.12
-133.09
-149
-164.16
-179.31
-195.31
-212.63
-231.03
-249.54
-266.85
-281.85
-294.16
-304.43
-314.15
-325.28
-339.74
-358.75
-382.14
-407.96
-432.36
-450.36
-457.27
-450.41
-430.38
-400.96
-367.65
-335.41
-306.81
-281.53
-257.54
-232.96
-207.46
-182.41
-159.69
-140.32
-123.86
-108.73
-93.39
-77.2
-60.61
-44.67
-30.52
-19.31
-12.37
-11.33
-17.37
-30.15
-47.05
-63.73
-75.78
-80.9
-80.26
-77.71
-77.34
-80.69
-85.65
-87.75
-83.58
-73.98
-65.07
-66.16
-85.94
-128.69
-192.42
-269.56
-349.39
-421.23
-476.87
-511.72
-524.75
-517.56
-493.28
-455.41
-407.2
-351.62
-291.82
-231.49
-174.71
-124.83
-82.9
-46.95
-12.26
26.86
74.73
132.55
197.66
263.79
322.39
364.69
383.39
374.55
338.89
282.17
214.05
145.28
84.48
35.93
-0.37
-26.58
-43.7
-49.73
-40.16
-11.2
36.07
93.42
146.5
179.17
178.99
141.72
72.5
-16.31
-109.26
-192.2
-255.26
-293.89
-308.27
-301.55
-277.78
-240.78
-193.85
-139.89
-81.89
-22.74
35.26
90.78
143.6
193.77
240.49
281.54
313.78
334.39
342.09
337.51
322.39
298.61
267.56
230.63
190.27
150.76
117.76
96.71
90.73
99.35
118.71
143.03
166.72
185.95
199.28
207.03
210.12
209.22
204.41
195.68
183.45
168.79
153.26
138.14
123.81
109.67
94.48
77.06
56.9
34.53
11.37
-10.46
-28.62
-41.13
-46.9
-46.04
-39.84
-30.17
-18.83
-7.04
4.65
16.03
26.9
37.06
46.33
54.81
62.68
70.07
76.93
83.15
88.57
92.9
95.61
95.83
92.34
83.82
69.07
47.41
18.85
-15.66
-54.22
-94.16
-132.48
-166.49
-194.24
-214.53
-226.39
-228.78
-220.74
-202.38
-175.82
-145.24
-115.48
-89.93
-69.07
-50.69
-32.03
-12.15
6.86
20.9
26.22
21.95
10.96
-1.28
-9.1
-9
-0.64
13.7
30.57
46.96
61.08
72.44
81.25
87.82
92.12
93.91
92.97
89.36
83.51
76.04
67.54
58.34
48.49
37.83
26.13
13.04
-1.79
-18.49
-36.83
-55.98
-74.82
-92.51
-108.98
-125.14
-142.35
-161.49
-182.26
-202.98
-221.38
-235.54
-244.8
-249.86
-252.14
-253.12
-253.84
-255
-257.32
-261.72
-269.1
-279.87
-293.53
-308.59
-323.07
-335.19
-343.87
-349.08
-351.59
-352.61
-353.17
-353.39
-352.04
-346.47
-333.12
-308.53
-270.49
-218.92
-156.08
-86.09
-13.66
57.21
124.08
186.25
244
297.38
345.37
385.71
415.77
434.06
441.21
440.16
435.29
430.99
430.3
434.29
441.87
450.14
455.1
452.7
440.37
418.23
389.38
358.85
331.43
309.58
292.52
277.17
260.31
240.63
219.37
199.28
182.92
171.23
163.5
158.41
155.16
153.91
155.37
159.86
166.63
173.82
179.19
180.9
178.23
171.7
162.6
152.29
141.52
130.13
117.24
101.88
83.69
63.28
41.96
21.02
1.02
-18.5
-38.69
-60.74
-85.32
-112.2
-140.53
-169.09
-196.47
-221.18
-241.67
-256.71
-265.82
-269.65
-269.87
-268.5
-267.06
-265.94
-264.36
-261.08
-255.25
-247.07
-237.79
-229.18
-222.61
-218.35
-215.34
-211.76
-205.74
-196.26
-183.37
-168
-151.51
-135.06
-119.48
-105.25
-92.73
-82.21
-73.74
-66.95
-61
-54.83
-47.65
-39.25
-30.23
-21.7
-14.84
-10.4
-8.44
-8.34
-9.04
-9.46
-8.83
-6.88
-3.94
-0.74
1.87
3.16
2.82
0.97
-1.93
-5.29
-8.51
-11.15
-12.98
-13.94
-14.14
-13.78
-12.99
-11.79
-9.96
-7.16
-3.1
2.28
8.62
15.17
20.93
24.88
26.2
24.55
20.08
13.53
6.05
-1.07
-6.78
-10.46
-12.19
-12.54
-12.44
-12.71
-13.81
-15.64
-17.6
-18.86
-18.68
-16.72
-13.2
-8.68
-3.81
0.88
5.05
8.43
10.67
11.28
9.9
6.61
2.17
-2.27
-5.48
-6.76
-6.19
-4.52
-2.69
-1.36
-0.65
-0.18
0.57
1.97
4.02
6.46
9
11.45
13.82
16.23
18.72
21.04
22.76
23.4
22.7
20.79
18.17
15.5
13.22
11.43
9.85
8.01
5.56
2.51
-0.7
-3.39
-4.85
-4.68
-2.85
0.2
3.82
7.41
10.58
13.31
15.81
18.3
20.83
23.14
24.83
25.44
24.78
22.99
20.51
17.98
16.04
15.13
15.35
16.52
18.09
19.34
19.49
17.99
14.59
9.56
3.59
-2.34
-7.27
-10.5
-11.83
-11.62
-10.67
-9.93
-10.21
-11.9
-14.87
-18.5
-21.93
-24.3
-24.96
-23.58
-20.2
-15.15
-9.01
-2.49
3.66
8.83
12.7
15.3
17.06
18.64
20.59
23.21
26.4
29.79
32.92
35.43
37.19
38.21
38.56
38.32
37.57
36.42
35.07
33.73
32.55
31.54
30.56
29.49
28.26
26.91
25.57
24.3
23.02
21.52
19.54
16.91
13.67
10.01
6.24
2.61
-0.76
-3.89
-6.86
-9.72
-12.35
-14.51
-15.96
-16.53
-16.22
-15.17
-13.58
-11.6
-9.32
-6.73
-3.81
-0.57
2.97
6.72
10.56
14.34
17.87
20.95
23.44
25.32
26.75
28
29.37
31.08
33.16
35.46
37.67
39.43
40.31
40.01
38.4
35.63
32.12
28.39
24.93
21.97
19.51
17.36
15.28
13.06
10.44
7.1
2.71
-2.9
-9.46
-16.25
-22.32
-26.87
-29.63
-30.93
-31.38
-31.49
-31.32
-30.52
-28.67
-25.73
-22.27
-19.25
-17.59
-17.63
-18.89
-20.32
-20.75
-19.44
-16.37
-12.11
-7.47
-3.04
0.95
4.58
8.03
11.3
14.23
16.59
18.28
19.4
20.19
20.88
21.53
22.08
22.36
22.26
21.78
21
19.99
18.72
17.1
14.98
12.28
9.11
5.72
2.44
-0.43
-2.76
-4.55
-5.9
-6.93
-7.72
-8.34
-8.84
-9.3
-9.77
-10.23
-10.53
-10.41
-9.63
-8.08
-5.87
-3.27
-0.6
1.88
4.09
6.03
7.75
9.21
10.28
10.8
10.72
10.11
9.18
8.12
7.03
5.9
4.66
3.28
1.89
0.66
-0.36
-1.32
-2.58
-4.48
-7.17
-10.43
-13.83
-16.98
-19.68
-22.05
-24.37
-26.81
-29.35
-31.67
-33.3
-33.8
-32.9
-30.58
-27.14
-23.07
-18.92
-15.13
-11.87
-9.04
-6.33
-3.46
-0.35
2.78
5.45
7.2
7.7
6.97
5.33
3.51
2.51
3.67
8.25
17.03
29.75
44.85
59.61
70.97
76.54
75.53
68.96
59.05
47.9
36.36
23.59
7.86
-11.89
-34.69
-57.28
-75.17
-84.52
-83.66
-73.46
-56.6
-36.21
-14.75
6.34
26.32
44.56
60.28
72.69
81.39
86.59
88.86
88.61
85.44
78.09
65.19
46.48
23.99
2.26
-13
-17.25
-9.43
7.02
25.42
38.7
42.4
36.27
23.54
8.69
-4.86
-15.9
-24.99
-33.12
-40.52
-46.56
-50.29
-51.23
-49.68
-46.41
-42.03
-36.66
-29.96
-21.55
-11.49
-0.36
10.93
21.52
30.79
38.24
43.23
44.88
42.34
35.26
24.26
11.05
-2
-12.65
-19.44
-21.99
-20.84
-17.06
-11.8
-6.09
-0.87
3.07
5.13
5.09
3.24
0.33
-2.69
-5.01
-6.2
-6.23
-5.43
-4.39
-3.81
-4.38
-6.55
-10.26
-14.76
-18.71
-20.7
-19.85
-16.28
-11.14
-6.11
-2.6
-1.12
-1.22
-1.77
-1.7
-0.48
1.7
4.22
6.37
7.64
7.83
6.89
4.86
1.76
-2.41
-7.56
-13.52
-19.97
-26.43
-32.22
-36.65
-39.08
-39.32
-37.65
-34.8
-31.69
-28.96
-26.79
-24.9
-22.91
-20.72
-18.64
-17.32
-17.31
-18.77
-21.29
-24.15
-26.68
-28.52
-29.63
-30.09
-29.76
-28.18
-24.82
-19.44
-12.42
-4.63
3.02
10.21
17.41
25.31
34
41.96
46.03
42.38
27.86
1.08
-37.55
-86.39
-143.04
-203.95
-263.78
-314.96
-348.76
-357.82
-338.8
-293.88
-229.81
-155.51
-79.23
-7.33
55.53
105.75
140.69
159.85
166.07
165.59
166.14
173.91
190.83
214.04
237.37
254.08
259.43
251.86
232.71
205.08
172.56
138.31
104.81
73.73
46.22
23.32
5.99
-4.9
-9.19
-7.77
-2.62
3.79
9.41
13.34
15.93
18.19
20.95
24.43
28.32
32.2
35.9
39.47
42.94
46.15
48.96
51.62
54.98
60.07
67.31
75.81
83.3
86.83
84.04
73.97
57.18
35.08
9.07
-19.63
-49.66
-78.93
-104.48
-123.23
-133.17
-134.4
-129.14
-120.74
-112.09
-104.53
-97.59
-90
-80.84
-70.29
-59.61
-50.2
-42.89
-37.47
-33.09
-28.92
-24.75
-21.11
-18.83
-18.43
-19.59
-21.19
-21.81
-20.44
-17
-12.32
-7.68
-4.05
-1.61
0.29
2.64
6.09
10.51
15.06
18.7
20.79
21.31
20.76
19.68
18.35
16.88
15.47
14.77
15.81
19.68
26.98
37.55
50.57
64.86
79.31
93.18
105.96
117.53
128.03
138
148.15
158.93
170
179.84
186.06
186.49
180.33
168.99
155.77
144.43
137.4
134.38
132.57
128.2
118.8
104.75
89.17
76.13
68.1
64.39
61.59
55.7
44.81
30.28
15.72
4.18
-4.41
-13.61
-28.3
-51.12
-80.04
-108.65
-129.31
-137.21
-132.8
-121.26
-109.52
-102.71
-102.29
-106.83
-114.21
-123.47
-135.11
-149.76
-166.57
-182.57
-193.69
-196.85
-191.59
-180.41
-167.52
-156.53
-148.4
-141
-130.46
-113.69
-90.57
-64.38
-40.02
-21.22
-8.35
1.53
12.44
26.41
41.77
53.95
58.35
53.24
40.69
24.77
8.75
-6.88
-23.94
-44.27
-67.57
-91.09
-111.14
-125.18
-132.6
-134.11
-130.3
-120.93
-105.55
-84.73
-60.73
-37.07
-17.16
-3
5.36
9.14
10.05
9.58
9.07
9.93
13.66
21.62
34.62
52.66
74.84
99.43
123.84
144.91
159.42
165.11
161.71
151.55
139.38
131.24
132.71
146.83
172.53
204.31
233.69
252.18
254.43
240.11
213.55
181.27
148.51
117.07
85.28
49.45
6.1
-46.52
-108.11
-176.33
-246.86
-313.64
-369.44
-407.25
-422.3
-413.95
-386.44
-348.01
-308.45
-275.82
-253.9
-241.2
-232.14
-219.89
-199.41
-169.73
-134.11
-98.56
-69.24
-50.08
-41.53
-40.65
-42.42
-41.36
-33.55
-18.08
2.45
22.67
36.34
38.48
27.2
3.63
-29.55
-69.61
-113.97
-159.5
-201.65
-235.26
-256.9
-266.6
-268.46
-269.03
-274.03
-285.22
-299.67
-311.19
-313.97
-305.79
-287.37
-260.7
-227.79
-189.92
-148.09
-104.19
-60.41
-20.05
11.75
32.93
46.44
58.24
75.45
103.39
142.84
191.14
240.22
274.3
280.2
252.91
195.41
118.6
38.99
-25.66
-57.43
-46.91
-2.84
59.14
123.79
177.87
214.9
236.97
252.28
274.9
314.18
362.9
411.81
457.28
499.35
542.22
591.81
619.43
600.12
571.49
543.95
495.87
420.11
318.59
200.29
77.73
-37.06
-130.56
-194.74
-235.88
-260.95
-276.68
-289.32
-304.21
-323.11
-344.09
-357.14
-359.39
-357.2
-354.08
-346.8
-332.38
-307.84
-272.18
-227.35
-175.14
-118.67
-64.45
-15.75
28.6
70.61
111.91
152.93
192.66
230.47
265.37
295.41
320.69
343.88
368.27
396.51
428.91
462.3
490.65
506.45
503.46
480.22
440.87
393.23
345.64
303.89
269.85
242.02
217.42
193.39
168.07
139.92
107.5
69.7
26.49
-20.43
-67.92
-112.51
-151.47
-183.39
-208.22
-226.8
-240.35
-250.41
-258.67
-266.48
-274.16
-280.59
-283.28
-279.44
-267.31
-247.3
-222.04
-195.61
-172.08
-154.12
-142.22
-134.61
-128.11
-119.33
-105.85
-86.98
-63.97
-39.3
-15.73
4.54
20.37
31.54
38.55
42.37
44.34
46.02
48.89
53.56
59.04
62.55
60.39
49.69
30.25
5.53
-18.22
-34.19
-37.89
-29.09
-11.83
7.42
22.48
29.66
28.57
21.36
11.01
-0.08
-10.75
-20.82
-30.33
-39.01
-46.12
-50.83
-52.66
-51.83
-49.22
-45.98
-43.17
-41.52
-41.37
-42.81
-45.77
-49.95
-54.83
-59.67
-63.72
-66.63
-68.86
-71.93
-78.04
-89.16
-105.81
-126.11
-145.73
-158.92
-160.34
-146.93
-118.96
-79.73
-34.27
12.34
56.19
94.96
127.61
153.85
173.85
187.98
196.71
200.65
200.75
198.7
197.26
199.84
209.09
225.35
245.53
263.7
273.25
269.56
251.74
222.55
186.64
148.35
110.38
73.83
38.99
6.03
-25.03
-54.77
-84.64
-116.33
-150.58
-186.11
-219.41
-245.52
-259.53
-258.07
-240.34
-208.37
-166.84
-122.14
-81.18
-49.68
-30.81
-24.44
-27.47
-35.09
-42.49
-46.22
-44.6
-37.55
-25.91
-11.15
4.74
19.04
28.59
30.61
23.81
9.24
-9.85
-29.03
-44.34
-53.65
-57.19
-57.01
-55.74
-55.35
-56.31
-57.61
-57.46
-54.24
-47.35
-37.54
-26.74
-17.47
-12.06
-11.99
-17.38
-26.85
-37.77
-46.93
-51.53
-50.18
-43.48
-33.85
-24.55
-18.35
-16.39
-17.93
-20.89
-22.87
-22.13
-17.84
-9.98
1.06
14.62
29.73
45
58.82
69.89
77.7
82.67
85.99
88.99
92.43
96.11
98.87
99.06
95.38
87.75
77.99
69.91
68.38
77.62
99.05
129.86
163.07
189.63
201.63
195.26
171.99
137.53
99.12
62.82
31.9
6.83
-13.63
-31.19
-47.45
-63.79
-81.32
-100.44
-120.18
-137.85
-149.54
-151.5
-141.78
-121.11
-92.81
-61.55
-31.86
-7.15
10.7
21.03
24.13
20.81
12.3
-0.06
-15.23
-32.81
-53.05
-76.46
-102.86
-130.87
-157.76
-180.18
-195.31
-201.89
-200.51
-192.98
-181.36
-167.15
-151.26
-134.37
-117.48
-101.87
-88.36
-76.59
-64.67
-49.97
-30.69
-7.27
17.31
38.56
52.53
57.72
55.66
50.06
44.92
42.72
43.7
46.29
48.34
48.4
46.25
42.68
38.82
35.44
32.68
30.22
27.56
24.37
20.53
16.2
11.67
7.41
4.01
2.29
3.07
6.89
13.65
22.46
31.71
39.43
43.84
43.85
39.38
31.33
21.29
11.11
2.47
-3.55
-6.63
-7.23
-6.38
-5.27
-4.81
-5.38
-6.72
-8.22
-9.22
-9.36
-8.51
-6.69
-3.83
0.33
6.11
13.62
22.5
31.84
40.53
47.62
52.65
55.76
57.42
58.06
57.8
56.42
53.52
48.88
42.73
35.74
28.81
22.66
17.68
13.74
10.45
7.34
4.14
0.93
-1.95
-4.1
-5.31
-5.49
-4.63
-2.84
-0.59
1.34
2.14
1.24
-1.47
-5.53
-9.75
-12.51
-12.51
-9.65
-5.18
-1.1
0.71
-0.86
-5.9
-12.91
-19.35
-22.73
-22.03
-18.24
-13.51
-10.14
-9.77
-12.98
-18.21
-21.89
-19.32
-6.3
19.81
59.65
111.5
170.86
225.56
259.69
260.92
228.8
175.22
116.6
65.68
28.08
3.18
-12.88
-23.37
-29.36
-30.36
-26.73
-20.96
-17.29
-19.3
-28.2
-42.16
-56.21
-64.06
-60.94
-46.54
-25.29
-4.48
8.88
10.42
-0.63
-21.73
-48.84
-77.08
-103.16
-125.65
-144.31
-159.02
-169.42
-175.14
-175.82
-171.28
-161.58
-147.28
-129.4
-109.27
-88.55
-69.24
-53.67
-44.05
-41.85
-47.08
-57.8
-69.85
-77.19
-73.26
-53.12
-15.58
35.77
93.28
147.53
190.3
216.92
226.83
222.68
208.44
187.97
164.37
140.36
118.74
102.32
93.36
92.57
98.51
107.93
116.85
121.9
121.3
114.88
103.76
89.63
74.29
59.64
47.72
40.49
39.47
45.21
57.29
74.63
96
120.28
146.2
171.82
194.46
211.36
220.87
223.51
222
220.13
220.75
224.24
228
227.59
218.59
198.33
166.65
125.7
78.9
30.06
-17.35
-60.59
-97.83
-128.39
-153
-173.61
-192.87
-213.06
-235.07
-257.87
-278.85
-294.87
-303.69
-304.89
-299.94
-291.33
-281.3
-270.92
-260
-247.74
-233.73
-218.42
-202.84
-187.9
-173.79
-159.93
-145.29
-128.97
-110.5
-89.87
-67.52
-44.42
-22.21
-2.8
12.44
23.6
32.42
41.42
52.27
64.55
75.82
83.22
85.44
83.84
81.66
81.84
85.03
89.12
90.8
87.88
80.87
72.69
66.74
64.83
66.3
68.75
69.73
67.98
63.44
56.17
45.32
29.14
6.37
-21.86
-51.31
-75.93
-90.89
-95.22
-92.48
-88.7
-88.75
-93.49
-99.46
-101.51
-96.28
-84.29
-69.44
-56.16
-46.47
-39.02
-30.65
-19.32
-6.36
3.66
5.31
-4.41
-23.88
-47.18
-66.51
-75.47
-71.6
-57
-37
-17.68
-3.71
2.99
3.04
-1.5
-8.42
-16.1
-23.54
-30.05
-34.88
-37.2
-36.24
-31.66
-23.77
-13.73
-3.48
4.45
7.7
4.87
-3.99
-17.52
-33.8
-51.5
-70.25
-90.31
-111.47
-132.5
-151.54
-167.52
-181.31
-195.57
-212.87
-233.03
-251.72
-261.7
-256.07
-231.81
-191.46
-142.09
-92.2
-48.92
-16.82
1.54
4.59
-8.28
-35.44
-71.81
-108.94
-137.3
-149.87
-144.78
-125.56
-98.93
-71.01
-44.78
-19.5
7.79
40.24
79.76
126.44
178.48
232.05
281.37
319.75
342.01
347.03
339
326.06
316.6
315.21
320.75
327.92
331.19
328.51
322.23
316.81
314.95
315.01
311.39
297.72
270.44
230.55
182.63
132.54
84.95
42.59
6.62
-22.43
-44.35
-59.44
-68.83
-74.15
-76.71
-76.56
-72.26
-61.7
-43.39
-17.75
12.44
42.71
68.06
84.42
89.73
84.55
72.02
57.03
44.69
38.58
39.53
45.3
51.47
53.12
46.23
28.38
-1.32
-42.43
-93.17
-149.87
-206.74
-256.45
-292.06
-309.34
-308.34
-293.13
-269.75
-243.69
-218.03
-193.26
-168.62
-143.51
-118.47
-94.72
-73.31
-54.39
-37.25
-21
-5.28
9.51
22.53
33.04
41.03
47.3
53.13
59.74
67.61
76.19
84.09
89.76
92.14
91.15
87.55
82.4
76.5
70.13
63.26
55.92
48.4
41.1
34.23
27.61
20.74
13.23
5
-3.53
-11.82
-19.4
-26.06
-31.73
-36.25
-39.24
-40.32
-39.4
-37.07
-34.54
-33.34
-34.7
-39.06
-45.79
-53.39
-60.05
-64.24
-65.33
-63.72
-60.77
-58.42
-58.81
-64.03
-75.73
-94.38
-118.54
-144.35
-166.11
-177.92
-175.88
-159.79
-133.32
-102.46
-73.03
-48.55
-29.41
-13.71
1.01
16.28
32.22
48.24
64.28
81.6
102.58
129.29
161.77
196.88
228.64
250.32
257.35
249.69
232.06
211.84
195.57
185.99
181.21
176.58
167.79
153.52
136.1
119.91
108.85
104.23
104.45
106.15
106.08
102.5
95.52
86.49
76.81
67.21
57.49
46.88
34.67
20.76
5.81
-8.88
-21.91
-32.33
-40.06
-45.89
-51.1
-56.93
-63.93
-71.74
-79.23
-85.02
-88.01
-87.82
-84.85
-80.01
-74.28
-68.44
-62.88
-57.63
-52.51
-47.31
-41.91
-36.39
-31
-26.12
-22.08
-19.04
-16.96
-15.6
-14.71
-14.08
-13.65
-13.52
-13.8
-14.57
-15.77
-17.22
-18.74
-20.17
-21.45
-22.71
-24.15
-26
-28.35
-31.04
-33.74
-36.01
-37.55
-38.32
-38.55
-38.65
-38.94
-39.52
-40.17
-40.52
-40.16
-38.9
-36.82
-34.26
-31.67
-29.49
-28
-27.23
-26.98
-26.93
-26.77
-26.36
-25.74
-25.17
-24.91
-25.15
-25.9
-27.04
-28.41
-29.89
-31.43
-33.05
-34.72
-36.39
-37.96
-39.41
-40.88
-42.61
-44.8
-47.48
-50.53
-53.82
-57.39
-61.53
-66.67
-73.12
-80.8
-89.24
-97.86
-106.31
-114.6
-123.03
-131.79
-140.67
-149.17
-156.7
-162.87
-167.61
-170.85
-172.24
-171.05
-166.26
-156.74
-141.55
-119.73
-90.11
-51.19
-1.67
58.42
126.39
196.51
260.84
311.35
342.42
352.62
344.88
325.25
300.88
278.12
261.57
253.83
255.54
265.36
279.92
294.14
302.3
299.68
283.9
255.6
217.87
175
131.24
89.88
52.86
20.83
-6.6
-30.51
-52.1
-72.14
-90.51
-106.26
-118.12
-125.18
-127.5
-126.04
-122.27
-117.57
-112.88
-108.74
-105.47
-103.32
-102.34
-102.26
-102.28
-101.34
-98.52
-93.46
-86.51
-78.57
-70.67
-63.65
-57.88
-53.38
-50.06
-47.78
-46.48
-46.1
-46.45
-47.17
-47.73
-47.45
-45.57
-41.44
-34.67
-25.29
-13.83
-1.22
11.41
22.98
32.74
40.41
46.21
50.75
54.9
59.41
64.64
70.48
76.34
81.61
85.93
89.42
92.52
95.67
98.87
101.5
102.29
99.62
92
78.64
59.96
37.83
15.31
-4.08
-17.56
-23.88
-23.83
-19.74
-14.77
-11.95
-13.6
-20.91
-33.73
-50.36
-67.74
-82.16
-90.46
-91.38
-86.16
-78.07
-71.03
-68.03
-70.37
-77.79
-89.3
-103.74
-119.78
-135.63
-148.76
-156.63
-157.88
-153.24
-145.46
-137.99
-133.27
-131.46
-130.64
-128.02
-121.46
-110.41
-95.78
-79.02
-61.31
-43.33
-25.62
-9.11
4.84
14.87
20.36
21.89
21.12
19.97
19.63
20.12
20.3
18.67
14.25
7.15
-1.43
-9.77
-16.11
-19.21
-18.61
-14.97
-10.61
-9.84
-18.52
-42.33
-84
-140.9
-204.47
-262.29
-302.36
-317.42
-307.19
-277.5
-236.99
-193.33
-150.93
-111.01
-73.34
-38.03
-6.2
20.81
42.63
60.71
77.9
97.43
121.58
150.91
183.98
217.68
248.09
271.56
285.74
290.22
286.36
276.39
262.25
244.75
223.78
199.15
171.63
143.18
116.3
92.8
72.78
54.62
36.01
15.37
-7.18
-29.6
-48.84
-61.93
-67.06
-63.85
-53.38
-37.79
-19.84
-2.11
13.51
26.16
36.04
44
51.03
57.68
63.7
68.21
70.29
69.78
67.56
65.5
65.92
71.22
82.84
100.53
122.12
144.06
163.05
176.7
184.43
187.3
188.33
190.56
195.51
202.1
207.11
207.56
200.87
185.86
162.64
134.5
106.14
82.29
66.09
58.69
60.56
69.16
78.94
81.61
71.89
49.11
18.52
-9.98
-25.03
-16.45
17.35
68.2
120.03
159.51
180.02
183.05
175.07
150.29
108.94
56.09
9.99
-28.22
-59.6
-86.4
-107.79
-124.27
-138.89
-154.71
-176.76
-209.92
-258.41
-319.45
-384.44
-441.24
-478.69
-490
-472.79
-431.04
-371.8
-303.8
-232.55
-161.92
-95.99
-40.54
-1.62
19.87
25.13
21.46
18.07
22.21
35.36
54.3
73.98
90.23
101.47
106.34
104.93
97.64
86.14
72.75
60.09
49.46
41.05
34.02
25.08
11.46
-9.09
-37.48
-72.62
-110.93
-146.89
-174.3
-180.14
-161.83
-125.51
-83.19
-47.11
-24.7
-16.64
-18.58
-24.42
-29.81
-34.9
-41.11
-49.35
-58.9
-67.64
-73.3
-74.88
-72.73
-68.48
-65.29
-65.03
-67.24
-70.12
-71.42
-69.61
-64.76
-57.86
-51.05
-47.18
-47.73
-52.25
-58.81
-64.76
-67.94
-67.64
-63.96
-58.32
-52.77
-48.32
-44.28
-38.27
-26.73
-5.76
22.56
56.42
92.94
128.79
161.46
190.05
215.35
239.46
265.23
295.53
333
377.87
426.81
472.44
504.6
513.24
492.38
443.08
373.87
298.7
231.69
182.8
155.57
147.6
152.83
164.29
175.75
182.33
180.77
169.13
147.06
116.21
79.95
42.38
7.17
-23.63
-49.81
-72.46
-93.24
-113.72
-134.75
-156.24
-177.09
-195.24
-207.82
-211.9
-205.35
-187.89
-161.61
-130.72
-100.57
-76.31
-62.02
-60.33
-72.44
-98.14
-135.51
-180.82
-228.41
-271.43
-303.04
-317.77
-312.98
-289.71
-252.54
-208.85
-167.22
-135.41
-118.6
-118.29
-132.15
-155.12
-180.96
-203.81
-219.27
-224.82
-220
-206.16
-186.18
-163.58
-141.29
-120.61
-100.89
-79.95
-55.32
-25.35
10.2
50.09
92.16
133.8
172.35
205.4
230.85
247.01
252.58
246.76
229.4
201.28
164.35
121.71
77.16
34.32
-4.13
-36.72
-62.82
-81.96
-93.33
-95.81
-88.74
-72.8
-50.39
-25.02
-0.06
22.5
42.62
61.79
81.86
103.8
127.08
150.01
170.71
188.08
202.03
212.9
220.5
223.59
220.37
209.76
192.63
172.19
153.02
139.12
132.13
130.36
129.38
123.88
109.75
85.37
51.92
12.6
-28.32
-66.47
-98.12
-120.75
-133.47
-137.31
-135.04
-130.55
-127.64
-128.7
-133.71
-140.2
-144.26
-142.25
-132.43
-115.7
-95.21
-74.98
-58.35
-46.72
-39.03
-33.07
-26.96
-19.91
-12.38
-5.34
0.66
5.87
11.27
18.16
26.78
36.02
43.96
48.75
49.26
45.71
39.19
31.77
26.49
25.49
29.26
36.96
46.67
55.92
62.5
64.04
59.26
49.79
36.41
18.57
-4.1
-30.76
-58.86
-84.08
-103.39
-113.88
-109.98
-90.33
-57.61
-14.67
36.06
91.85
148.37
195.63
223.29
229.69
213.61
175.23
119.88
55.93
-8.49
-68.05
-124.97
-182.51
-234.8
-280.58
-323.06
-364.06
-403.58
-440.27
-444.61
-398.34
-343.72
-301.08
-266.93
-245.29
-239.52
-250.76
-278.4
-321.17
-381.37
-458.35
-516.9
-529.53
-487.07
-399.54
-289.51
-180.53
-89.44
-27.07
5.24
19.26
22.17
17.61
7.35
-6.78
-21.84
-34.16
-42.19
-44.67
-37.1
-19.88
0.64
19.81
36.09
50.73
66.21
83.79
103.99
128.06
153.55
176.17
192.7
202.15
205.66
205.71
204.73
204.79
207.67
212.75
217.89
221.02
221.04
218.25
214.23
211.31
211.77
216.91
226.11
237.22
247.57
255.13
259.38
261.62
264.33
270.16
280.97
297.45
319.4
346.26
376.95
409.44
440.22
464.55
477.67
476.53
460.91
433.33
397.63
356.8
311.57
260.68
202.77
138.82
73.54
14.51
-30.64
-57.61
-67.66
-67.16
-64.56
-66.34
-74.06
-84.12
-90.68
-89.67
-81.8
-72.44
-68.27
-73.13
-85.39
-98.82
-106.36
-104.57
-96
-88.05
-88.76
-101.86
-124.33
-147.71
-162.51
-163.23
-150.97
-132.41
-115.84
-106.8
-105.93
-109.96
-114.81
-118.32
-121.08
-124.88
-130.24
-134.88
-134.34
-124.28
-103.18
-73.69
-41.67
-13.84
5.16
14.54
17.1
17.22
18.15
20.15
20.49
15.39
2.63
-16.81
-39.17
-60.29
-78.04
-93.24
-108.33
-124.76
-141.07
-153.24
-156.99
-150.55
-135.93
-117.78
-100.79
-87.42
-77.56
-69.98
-64.48
-62.67
-66.87
-77.84
-92.99
-106.58
-111.79
-103.67
-81.31
-48.11
-10.32
25.54
54.88
76.09
89.98
98.27
102.02
100.91
93.58
78.92
57.47
31.85
6.09
-16.07
-32.75
-44.41
-52.94
-60.03
-65.97
-69.58
-69.56
-65.94
-60.91
-58.26
-61.84
-74.12
-95.51
-124.45
-158.12
-192.94
-224.89
-249.93
-264.68
-267.47
-259.1
-242.83
-223.24
-204.31
-187.78
-172.55
-155.38
-132.75
-102.76
-66.23
-26.59
11.44
43.5
67.05
81.87
89.69
93.12
94.68
96.2
98.85
103.39
110.2
119.09
128.96
137.78
143.09
142.96
136.88
126.17
113.56
102.27
94.96
93.16
97.22
106.61
120.38
137.48
156.74
176.91
196.49
213.9
227.63
236.47
239.64
236.93
228.68
215.73
199.42
181.54
164.18
149.34
138.43
131.63
127.82
124.95
121.03
115.17
108.15
102.09
99.36
101.41
107.95
117.03
125.65
130.83
130.44
123.69
111.26
95.24
78.7
65.1
57.42
57.31
64.56
77.09
91.54
104.04
111.02
109.88
99.44
80.35
55.05
27.22
0.77
-21.41
-38.16
-50.05
-58.8
-66.3
-73.87
-82.13
-91.18
-100.78
-110.44
-119.39
-126.62
-131.21
-132.82
-132
-130.06
-128.36
-127.69
-127.82
-127.83
-126.61
-123.55
-118.66
-112.39
-105.29
-97.64
-89.51
-80.99
-72.46
-64.52
-57.74
-52.34
-47.95
-43.88
-39.48
-34.56
-29.5
-24.95
-21.39
-18.97
-17.61
-17.36
-18.68
-22.14
-27.81
-34.58
-40.06
-41.44
-36.94
-27.33
-16.1
-8.56
-9.81
-22.76
-47.35
-81.35
-122.11
-167.86
-217.43
-268.96
-318.36
-359.17
-384.56
-390.06
-375.98
-347.48
-312.47
-278.06
-248.06
-222.42
-198.96
-175.65
-152.09
-129.23
-107.97
-87.99
-67.69
-45.17
-19.53
8.58
37.28
64.33
88.15
108.17
124.7
138.63
151.04
163.02
175.46
188.56
201.78
213.92
223.72
230.52
234.48
236.29
236.48
234.96
230.95
223.51
212.08
197.02
179.45
160.99
143.24
127.38
114
103.02
93.89
85.91
78.74
72.51
67.81
65.31
65.28
67.32
70.45
73.23
74.2
72.18
66.62
57.77
46.78
35.46
25.82
19.54
17.54
19.88
25.92
34.74
45.43
57.39
70.29
83.86
97.36
109
115.72
113.71
99.91
73.76
38.17
-1.02
-37.25
-65.82
-85.62
-98.83
-109.19
-119.93
-132.57
-147.02
-162.58
-178.78
-195.61
-212.99
-230.15
-245.45
-256.79
-262.4
-261.64
-255.41
-245.94
-235.97
-227.86
-222.63
-219.77
-217.62
-214.08
-207.32
-196.01
-179.06
-155.71
-126.18
-92.56
-59.23
-31.97
-15.69
-11.94
-17.67
-26.16
-29.77
-23.16
-5.21
21.08
50.58
78.23
100.71
116.77
126.62
131.03
130.91
127.26
121.31
114.49
108.17
103.3
100.14
98.24
96.65
94.37
90.64
85.25
78.65
71.82
65.89
61.67
59.3
58.12
57
54.9
51.31
46.51
41.37
36.89
33.73
31.89
30.87
29.89
28.42
26.35
24.1
22.32
21.63
22.23
23.85
25.71
26.81
26.32
23.78
19.28
13.34
6.73
0.28
-5.35
-9.7
-12.54
-13.97
-14.27
-13.95
-13.55
-13.38
-13.37
-12.86
-10.81
-6.28
1.07
10.45
20.04
27.59
31.3
30.68
26.88
22.27
19.5
20.41
25.44
33.56
42.87
51.42
57.97
62.22
64.81
66.87
69.61
73.95
80.21
88.09
96.72
104.85
111.14
114.47
114.12
109.95
102.42
92.48
81.49
70.85
61.56
53.96
47.67
42.03
36.64
31.79
28.52
28.08
31.22
37.66
46.07
54.54
61.3
65.25
66.07
64.21
60.53
56.13
52.24
50.01
50.34
53.54
59.16
65.9
71.81
74.87
73.72
68.36
60.41
52.57
47.59
46.84
49.41
52.17
50.83
41.69
23.09
-3.98
-36.31
-69.58
-99.62
-123.28
-138.7
-145.36
-143.98
-136.51
-125.96
-115.95
-109.78
-109.42
-114.67
-123.14
-130.92
-133.95
-129.32
-116.04
-95.1
-68.88
-40.4
-12.46
12.71
33.67
49.66
60.59
66.86
69.35
69.18
67.45
64.87
61.5
56.64
49.29
38.81
25.55
11.12
-2.05
-11.73
-16.99
-18.83
-19.88
-23.41
-31.92
-46.03
-64.4
-84.5
-103.79
-120.71
-134.79
-146.14
-154.62
-159.49
-159.65
-154.43
-144.16
-130.41
-115.31
-100.85
-88.18
-77.6
-68.8
-61.29
-54.63
-48.38
-42.09
-35.4
-28.24
-20.86
-13.68
-6.91
-0.36
6.45
13.92
21.88
29.51
35.57
39.04
39.57
37.66
34.46
31.27
29.06
28.23
28.56
29.56
30.67
31.52
32.04
32.38
32.92
34.19
36.78
41.3
48.07
56.97
67.19
77.36
85.79
91.07
92.37
89.73
83.85
75.71
66.34
56.51
46.85
37.85
29.99
23.59
18.7
15.08
12.29
9.93
7.87
6.26
5.42
5.51
6.32
7.16
7.08
5.21
1.16
-4.72
-11.42
-17.55
-21.86
-23.62
-22.96
-20.66
-17.83
-15.38
-13.82
-13.07
-12.84
-12.87
-13.15
-13.93
-15.44
-17.72
-20.36
-22.78
-24.39
-25.01
-24.9
-24.65
-24.87
-25.76
-27.03
-28.01
-28
-26.67
-24.36
-21.9
-20.12
-19.51
-19.89
-20.56
-20.58
-19.17
-15.98
-11.28
-5.66
0.27
6.06
11.57
16.87
22.16
27.62
33.32
38.84
43.56
46.86
48.34
48.04
46.56
45.04
44.85
47.18
51.76
57.35
62.11
64.39
63.4
59.52
54.14
48.99
45.26
41.43
34.9
23.05
4.68
-19.28
-45.78
-70.47
-88.65
-96.01
-92.47
-80.46
-64.6
-50.85
-45.29
-52.76
-75.11
-110.06
-150.58
-190.04
-221.35
-239.26
-241.99
-232.01
-215.27
-198.76
-187.9
-167.79
-127.65
-63.51
17.5
101.48
175.98
234.91
278.65
308.73
332.06
349.38
358.85
358.13
346.71
326.4
300.12
273.22
249.26
230.25
213.62
196.05
175.24
151.12
125.91
102.89
85.09
73.89
69.28
67.91
66.08
61
51.81
39.53
26.1
13.29
1.53
-9.8
-23.23
-41.18
-65.01
-94.26
-127.08
-161
-193.91
-225.04
-254.72
-284.57
-316.76
-353.54
-396.76
-447.04
-502.61
-558.57
-607.26
-640.03
-650.26
-635.86
-600.3
-551.23
-497.52
-446.28
-401.22
-363.03
-330.89
-304.09
-282.61
-266.67
-255.81
-248.47
-242.3
-235.15
-225.86
-214.54
-202.31
-190.48
-179.75
-169.84
-159.65
-147.82
-133.33
-116.07
-96.84
-77.08
-58.26
-41.42
-26.83
-14.12
-2.51
8.73
20.01
31.34
42.38
52.73
62.09
70.49
78.18
85.56
92.99
100.65
108.39
115.78
122.17
126.85
129.28
129.26
127.11
123.54
119.51
115.86
113.07
111.03
109.19
106.81
103.43
99.18
94.86
91.65
90.58
92.05
95.54
99.82
103.54
105.87
106.96
107.85
110.04
114.89
123.18
135.05
149.93
166.55
182.48
194.5
199.28
194.7
181.07
161.34
140.12
121.58
107.69
97.76
89.6
81.57
74.16
70.06
72.46
83.04
100.69
121.79
142.15
159.08
172.67
185.78
203.06
228.96
265.96
312.93
364.66
412.63
447.05
459.37
444.47
402.1
336.7
256.61
172.48
95.4
35.13
-1.72
-12.71
0.38
32.82
78.62
132.22
188.84
244
292.8
329.92
350.95
354.15
341.41
317.57
288.47
258.58
229.88
202.18
174.42
146.36
119.18
94.99
75.69
61.89
52.6
45.95
40.32
35.27
31.85
31.9
36.96
47.3
61.61
77.28
91.18
100.46
103.17
98.47
86.76
69.45
48.65
26.72
5.62
-13.49
-30.47
-45.8
-59.88
-72.77
-84.26
-94.29
-103.36
-112.21
-121
-128.41
-131.38
-126.22
-110.81
-86.58
-59.09
-36.45
-26.22
-32.24
-53.26
-84.04
-118.04
-150.48
-179.79
-207.32
-235.78
-267.92
-305.82
-350.75
-402.93
-460.66
-519.46
-572.08
-610.27
-627.61
-622.05
-596.95
-559.67
-518.58
-480.16
-447.58
-421.02
-399.3
-381.24
-366.23
-353.74
-342.73
-331.46
-317.98
-300.99
-280.34
-256.95
-232.46
-208.38
-185.44
-163.55
-141.9
-119.52
-95.82
-70.89
-45.52
-20.94
1.72
21.87
39.67
56.01
72.17
89.37
108.36
129.2
151.45
174.51
197.97
221.76
245.86
270.01
293.43
315.02
333.79
349.28
361.61
371.08
377.62
380.49
378.51
370.83
357.67
340.57
322.01
304.33
288.91
275.75
263.86
252.12
239.98
227.76
216.31
206.48
198.54
192.02
185.98
179.35
171.38
161.79
150.79
138.92
126.96
115.72
105.89
97.8
91.27
85.6
79.65
72.24
62.37
49.47
33.39
14.51
-6.32
-27.75
-48.09
-65.92
-80.59
-92.78
-104.27
-117.23
-133.09
-151.77
-171.52
-189.55
-203.09
-210.32
-210.76
-205.24
-195.45
-183.67
-172.67
-165.51
-164.84
-171.91
-185.45
-201.37
-213.58
-215.74
-203.36
-174.92
-132.14
-79.18
-21.42
35.58
86.75
128.07
156.97
172.83
177.05
172.71
163.6
153.12
143.42
135.21
128.07
121.11
113.45
104.59
94.43
83.31
71.8
60.56
50.15
40.86
32.82
25.88
19.7
13.68
7.1
-0.68
-9.88
-20.1
-30.47
-40.03
-48.33
-55.67
-62.82
-70.6
-79.39
-89.34
-100.72
-114.06
-129.48
-145.51
-158.45
-162.9
-154.02
-129.8
-92.4
-47.22
-0.41
43.57
82.86
117.41
147.42
172.66
193.1
210
226.2
244.69
266.46
288.94
306.72
314.1
307.82
288.56
260.25
228.09
196.7
169.23
147.52
132.59
124.72
123.11
125.6
129.15
130.8
129
124.43
119.8
118.55
123.13
133.36
146.19
156.51
159.01
150.17
129.17
97.53
57.93
13.06
-34.69
-82.61
-127.2
-164.46
-191.31
-207.18
-214.66
-218.54
-223.5
-232
-243.35
-254.6
-262.38
-264.67
-261.5
-254.33
-244.92
-234.39
-222.94
-210.25
-195.97
-180.09
-162.94
-145.1
-127.12
-109.45
-92.43
-76.31
-61.22
-47.28
-34.6
-23.37
-13.9
-6.48
-1.32
1.68
3.01
3.44
3.83
4.82
6.63
9.07
11.77
14.42
16.94
19.37
21.52
22.7
21.87
18.29
12.25
5.55
1.11
1.89
9.61
23.99
42.85
63.12
81.83
96.77
106.52
110.16
107.22
98
84.1
68.61
55.56
48.71
50.21
59.82
74.97
91.77
106.3
115.8
119.45
118.23
114.33
110.04
106.69
103.97
100.13
92.69
79.39
59.15
32.48
1.51
-30.44
-59.52
-82.26
-96.39
-101.54
-99.22
-92.18
-83.33
-74.64
-66.64
-58.78
-50.24
-40.77
-30.95
-21.72
-13.69
-6.7
0.18
8.1
17.69
28.51
38.86
46.19
47.95
42.65
30.51
13.52
-5.46
-23.92
-40.8
-56.59
-72.62
-90.01
-108.8
-127.92
-145.75
-160.84
-172.41
-180.35
-185.15
-187.64
-188.69
-188.8
-187.76
-184.59
-177.92
-166.79
-151.23
-132.45
-112.25
-92.35
-73.87
-57.42
-43.38
-32.05
-23.41
-16.67
-10.28
-2.65
6.87
17.23
25.96
30.3
28.69
21.5
10.8
-0.76
-11.13
-19.5
-26.18
-31.92
-37.11
-41.43
-43.93
-43.55
-39.65
-32.43
-22.88
-12.39
-2.41
5.84
11.45
13.65
11.86
5.69
-4.71
-18.37
-33.49
-47.64
-58.44
-64.25
-64.7
-60.72
-54.18
-47.3
-41.96
-39.23
-39.16
-40.85
-42.8
-43.41
-41.5
-36.71
-29.59
-21.4
-13.66
-7.59
-3.65
-1.48
-0.15
1.35
3.57
6.32
8.73
9.73
8.51
4.92
-0.45
-6.69
-12.99
-19.1
-25.36
-32.44
-40.84
-50.53
-60.98
-71.55
-82
-92.64
-104.05
-116.47
-129.28
-140.89
-149.38
-153.33
-152.43
-147.26
-138.61
-126.63
-110.63
-89.9
-64.8
-37.46
-11.38
9.91
24.46
32.61
36.42
38.13
38.87
38.38
35.87
31.49
27.1
25.89
31.18
45.04
67.76
98.13
134.03
172.76
210.88
243.9
266.62
274.35
264.71
238.96
201.98
160.52
120.8
86.58
58.85
37.07
20.87
10.85
7.91
11.67
19.33
26.1
27.24
20.41
7.02
-8.42
-20.7
-26.48
-25.6
-20.52
-14.39
-9.24
-5.16
-0.91
4.75
12.01
19.75
26.23
30.01
30.63
28.67
25.33
21.71
18.46
15.64
13
10.29
7.44
4.55
1.75
-0.95
-3.69
-6.62
-9.85
-13.28
-16.74
-20.06
-23.14
-25.92
-28.27
-29.9
-30.38
-29.24
-26.21
-21.37
-15.16
-8.15
-0.9
6.25
13.13
19.59
25.46
30.43
34.2
36.69
38.15
39.16
40.5
42.76
46.21
50.6
55.36
59.86
63.74
67.09
70.38
74.25
79.21
85.36
92.21
98.77
103.68
105.69
104.08
99.08
91.92
84.43
78.32
74.53
72.83
72.07
70.73
67.61
62.28
54.97
46.34
37.07
27.84
19.35
12.52
8.36
7.61
10.36
15.69
21.91
27.11
29.82
29.52
26.5
21.46
14.9
6.82
-3.14
-15.23
-29.3
-44.69
-60.61
-76.4
-91.67
-105.95
-118.4
-127.67
-132.5
-132.47
-128.69
-123.65
-120.43
-121.36
-127.02
-136.13
-146.24
-154.95
-160.86
-163.93
-165.24
-166.19
-167.84
-170.45
-173.3
-174.81
-172.92
-165.6
-151.44
-130.17
-102.86
-71.75
-39.75
-9.62
16.72
38.69
57.03
73.43
89.75
107.27
126.16
145.48
163.53
178.48
188.93
194.11
193.86
188.36
178.06
163.7
146.39
127.67
109.3
92.88
79.54
69.63
62.87
58.56
55.92
54.39
53.65
53.48
53.46
52.74
50.04
43.89
33.17
17.59
-2.12
-24.34
-47.01
-68.12
-86.21
-100.54
-111.06
-118.16
-122.38
-124.09
-123.42
-120.36
-114.98
-107.68
-99.28
-90.83
-83.36
-77.62
-73.84
-71.74
-70.45
-68.75
-65.24
-58.76
-48.62
-35.01
-19
-2.38
12.69
24.32
31.41
34.04
33.42
31.44
29.98
30.08
31.67
33.74
35.07
34.97
33.75
32.4
31.94
32.65
33.98
34.99
35.05
34.35
33.82
34.48
36.74
40.03
43.19
45.08
45.28
44.2
42.81
41.93
41.84
42.15
42.18
41.4
39.69
37.37
34.91
32.74
31.08
29.94
29.18
28.6
27.99
27.06
25.52
23.2
20.19
16.94
14.26
13.09
14.24
18.08
24.47
32.74
42.04
51.51
60.64
69.34
77.84
86.47
95.38
104.27
112.44
118.96
123.02
124.19
122.49
118.17
111.52
102.64
91.6
78.69
64.66
50.71
38.07
27.63
19.51
13.23
7.91
2.74
-2.91
-9.33
-16.5
-23.91
-30.52
-34.79
-35.03
-30.11
-20.02
-6.16
8.94
22.48
32.28
37.39
38.18
35.85
31.67
26.4
20.1
12.27
2.48
-9.26
-22.27
-35.51
-47.94
-58.82
-67.78
-74.57
-78.88
-80.32
-78.85
-75.07
-70.39
-66.7
-65.71
-68.15
-73.6
-80.6
-87.27
-91.91
-93.25
-90.5
-83.2
-71.19
-54.88
-35.38
-14.54
5.49
22.82
36.47
46.63
54.33
60.83
66.91
72.47
76.62
78.13
75.98
69.9
60.68
50.02
39.99
32.22
27.22
24.07
20.8
15.02
4.67
-11.49
-33.67
-61.26
-92.88
-126.51
-159.62
-189.22
-212.25
-225.92
-228.18
-217.95
-195.27
-161.33
-118.55
-70.47
-21.44
23.99
61.84
89.53
106.37
113.76
114.43
111.29
106.02
98.24
85.72
65.74
37.09
1.55
-35.95
-68.83
-91.34
-100.67
-97.81
-86.66
-72.1
-58.1
-46.79
-38.75
-33.88
-32.2
-33.9
-38.88
-46.1
-53.45
-58.38
-59.03
-55.08
-47.95
-40.11
-33.87
-30.51
-29.84
-30.69
-31.66
-31.95
-31.54
-30.95
-30.74
-31.13
-31.89
-32.53
-32.64
-32.17
-31.41
-30.96
-31.48
-33.46
-37.01
-41.85
-47.3
-52.5
-56.69
-59.36
-60.5
-60.55
-60.32
-60.8
-62.81
-66.77
-72.48
-79.13
-85.44
-90.06
-91.87
-90.28
-85.3
-77.36
-67.12
-55.4
-43.04
-30.87
-19.74
-10.3
-2.84
2.78
7.29
11.66
16.87
23.41
31.06
38.96
45.91
50.9
53.51
53.96
52.87
50.82
48.06
44.41
39.52
33.13
25.39
16.86
8.48
1.32
-3.62
-5.6
-4.35
-0.12
6.39
14.21
22.39
30.22
37.29
43.4
48.33
51.76
53.36
52.97
50.78
47.4
43.7
40.47
38.21
36.94
36.25
35.57
34.34
32.27
29.31
25.76
22.02
18.47
15.35
12.62
9.95
6.78
2.57
-2.91
-9.36
-15.87
-21.15
-23.97
-23.62
-20.12
-14.14
-6.67
1.37
9.41
17.13
24.29
30.55
35.45
38.63
40.07
40.23
39.87
39.73
40.19
41.09
41.85
41.77
40.38
37.65
34.02
30.17
26.7
23.97
21.94
20.26
18.4
15.81
12.08
7.02
0.74
-6.33
-13.38
-19.36
-23.14
-23.94
-21.57
-16.59
-10.14
-3.5
2.25
6.56
9.28
10.37
9.67
6.81
1.57
-5.82
-14.35
-22.34
-27.91
-29.54
-26.79
-20.43
-12.32
-4.83
-0.02
1.08
-1.22
-5.43
-9.64
-12.31
-12.9
-11.88
-10.29
-9
-8.15
-7.16
-5.09
-1.25
4.46
11.66
19.93
29.2
39.75
51.78
64.85
77.65
88.35
95.37
97.94
96.24
90.86
82.32
70.79
56.42
