0
0
0
0
0
0
0
0
0
0
0
0.01
0.01
0
-0.03
-0.05
-0.05
0
0.13
0.36
0.66
1.01
1.37
1.72
2.06
2.4
2.79
3.24
3.8
4.42
5.06
5.66
6.2
6.68
7.15
7.68
8.31
9.14
10.09
11.04
11.88
12.56
13.14
13.76
14.65
15.96
17.91
20.32
22.9
25.38
27.58
29.57
31.68
34.32
37.81
42.54
48.15
54.1
59.83
64.97
69.58
74.14
79.34
85.71
93.76
103
112.62
121.73
129.77
136.75
143.3
150.75
157.77
166.64
177.95
191.79
206.97
220.57
228.25
225.36
208.53
176.87
132.76
80.05
23.07
-34.94
-92.44
-149.16
-205.23
-260.37
-313.74
-363.87
-409.83
-450.91
-486.5
-515.74
-537.23
-549.22
-549.96
-538.37
-514.21
-478.67
-433.88
-382.45
-327.02
-269.84
-212.63
-156.66
-102.95
-52.37
-5.9
35.58
71.43
101.35
125.5
144.38
158.69
169.15
176.37
180.75
182.57
182.07
179.51
175.23
169.65
163.18
156.15
148.81
141.3
133.69
126.02
118.33
110.69
103.16
95.8
88.68
81.83
75.25
68.95
62.95
57.25
51.86
46.78
42.03
37.59
33.45
29.61
26.07
22.81
19.83
17.11
14.67
12.48
10.54
8.83
7.35
6.07
4.97
4.05
3.27
2.62
2.09
1.65
1.3
1.01
0.79
0.61
0.47
0.37
0.29
0.23
0.19
0.17
0.16
0.16
0.17
0.19
0.21
0.24
0.28
0.32
0.36
0.41
0.45
0.5
0.54
0.59
0.65
0.7
0.76
0.83
0.9
0.97
1.06
1.15
1.26
1.38
1.51
1.66
1.83
2.01
2.22
2.45
2.7
2.98
3.29
3.63
4
4.4
4.84
5.31
5.82
6.38
7
7.66
8.34
9.04
9.74
10.44
11.15
11.91
12.75
13.7
14.75
15.9
17.08
18.27
19.42
20.53
21.57
22.48
23.19
23.57
23.43
22.6
20.96
18.44
15.12
11.18
6.8
2.24
-2.33
-6.83
-11.22
-15.47
-19.46
-22.98
-25.74
-27.5
-28.19
-27.98
-27.27
-26.58
-26.34
-26.69
-27.47
-28.21
-28.45
-27.89
-26.64
-25.22
-24.3
-24.42
-25.72
-27.83
-30.03
-31.6
-32.11
-31.63
-30.69
-29.99
-30.21
-31.92
-35.47
-40.83
-47.16
-52.57
-54.39
-49.97
-37.96
-19.23
3.07
24.61
41.48
51.63
55.38
54.69
51.95
48.9
46.24
43.95
41.94
40.38
39.69
40.16
41.53
43.1
43.95
43.36
41.13
37.68
33.78
30.21
27.44
25.53
24.06
22.44
20.19
17.16
13.56
9.75
6.06
2.7
-0.27
-2.89
-5.18
-7.2
-9.01
-10.8
-12.79
-15.27
-18.39
-22.17
-26.41
-30.73
-34.76
-38.19
-41.01
-43.54
-46.48
-50.62
-56.6
-64.5
-73.72
-82.89
-90.21
-93.78
-92.21
-84.92
-72.41
-56.14
-38.16
-20.56
-5.01
7.61
17.26
24.48
30.07
34.75
38.93
42.77
46.21
49.2
51.68
53.7
55.28
56.45
57.21
57.58
57.68
57.74
58.01
58.63
59.55
60.38
60.65
59.93
58.02
55.04
51.34
47.31
43.24
39.31
35.58
32.08
28.81
25.69
22.56
19.19
15.41
11.19
6.71
2.28
-1.88
-5.68
-9.32
-13.08
-17.22
-21.88
-26.99
-32.31
-37.58
-42.56
-47.16
-51.51
-55.94
-60.89
-66.8
-73.92
-82.11
-90.73
-98.57
-104.1
-105.75
-102.39
-93.73
-80.49
-64.26
-47.04
-30.69
-16.41
-4.57
5.12
13.29
20.54
27.17
33.24
38.63
43.26
47.11
50.26
52.79
54.78
56.27
57.27
57.83
58
57.9
57.7
57.49
57.26
56.8
55.8
53.95
51.12
47.47
43.37
39.35
35.77
32.79
30.25
27.76
24.87
21.15
16.47
10.97
5.09
-0.6
-5.64
-9.82
-13.31
-16.51
-19.83
-23.55
-27.66
-31.88
-35.84
-39.19
-41.72
-43.47
-44.83
-46.52
-49.38
-54.18
-61.17
-69.78
-78.61
-85.63
-88.79
-86.59
-78.61
-65.63
-49.42
-32.18
-15.99
-2.31
8.29
16.04
21.69
26.05
29.76
33.05
35.94
38.3
40.15
41.64
43.07
44.65
46.4
48.05
49.23
49.66
49.37
48.66
48.01
47.73
47.71
47.42
46.18
43.45
39.22
34
28.63
23.92
20.24
17.54
15.4
13.32
10.98
8.28
5.37
2.48
-0.14
-2.43
-4.47
-6.54
-9.03
-12.26
-16.38
-21.28
-26.67
-32.18
-37.54
-42.65
-47.52
-52.29
-57.27
-62.87
-69.54
-77.51
-86.4
-95.03
-101.57
-103.98
-100.82
-91.76
-77.79
-60.89
-43.37
-27.19
-13.54
-2.79
5.41
11.72
16.9
21.5
25.83
29.93
33.7
37
39.72
41.87
43.49
44.64
45.39
45.82
46.06
46.24
46.51
46.95
47.5
47.97
48.05
47.37
45.68
42.97
39.52
35.87
32.61
30.06
28.15
26.44
24.4
21.66
18.27
14.58
11.06
7.95
5.2
2.4
-0.94
-5.11
-10.17
-15.83
-21.67
-27.27
-32.39
-36.96
-41.14
-45.29
-49.91
-55.55
-62.55
-70.82
-79.5
-87.07
-91.59
-91.33
-85.44
-74.33
-59.54
-43.27
-27.58
-13.9
-2.74
6.13
13.29
19.35
24.69
29.45
33.59
37.09
39.95
42.34
44.46
46.47
48.4
50.12
51.4
52.1
52.26
52.1
51.94
52
52.24
52.43
52.19
51.24
49.42
46.81
43.66
40.28
36.99
33.98
31.33
28.98
26.77
24.49
21.97
19.14
16
12.6
9.03
5.33
1.47
-2.63
-7.15
-12.27
-18.06
-24.35
-30.69
-36.46
-41.17
-44.67
-47.33
-49.94
-53.41
-58.47
-65.34
-73.68
-82.55
-90.59
-96.21
-97.93
-94.76
-86.59
-74.26
-59.43
-44.08
-29.97
-18.14
-8.76
-1.36
4.83
10.43
15.73
20.65
25.01
28.59
31.41
33.68
35.67
37.58
39.39
40.91
41.76
41.69
40.65
38.89
36.94
35.42
34.8
35.22
36.41
37.75
38.51
38.16
36.59
34.14
31.6
29.9
29.83
31.67
34.88
37.89
38.34
33.55
21.42
1.41
-24.94
-54.04
-81.2
-102.22
-115.08
-121.08
-124.63
-131.54
-146.5
-170.6
-200.47
-229.32
-249.47
-254.99
-243.2
-214.7
-172.44
-120.84
-65.13
-11.04
35.99
71.97
95.76
109.35
117.06
123.56
131.86
142.41
153.51
162.65
167.81
168.06
163.45
154.62
142.5
128.3
113.48
99.54
87.56
78
70.56
64.36
58.34
51.63
43.77
34.89
25.67
17.16
10.41
6.07
4.16
4.05
4.77
5.36
5.2
4.19
2.55
0.7
-1.04
-2.55
-3.95
-5.52
-7.64
-10.65
-14.68
-19.61
-24.98
-30.16
-34.58
-38.03
-40.77
-43.39
-46.64
-51.09
-56.98
-64.02
-71.46
-78.08
-82.42
-83.1
-79.25
-70.86
-58.84
-44.81
-30.56
-17.6
-6.73
1.94
8.78
14.36
19.16
23.47
27.36
30.8
33.74
36.21
38.26
40.02
41.57
42.89
43.92
44.63
45.1
45.52
46.1
46.87
47.64
48
47.52
45.94
43.37
40.24
37.09
34.37
32.21
30.42
28.61
26.35
23.45
19.96
16.14
12.28
8.61
5.13
1.75
-1.68
-5.24
-8.93
-12.7
-16.49
-20.18
-23.68
-26.92
-29.89
-32.84
-36.25
-40.7
-46.59
-53.78
-61.4
-67.98
-71.82
-71.58
-66.71
-57.64
-45.56
-32.16
-19.04
-7.47
1.89
8.91
13.95
17.58
20.37
22.77
24.97
27.06
29.06
30.95
32.75
34.41
35.83
36.88
37.48
37.63
37.46
37.15
36.8
36.41
35.86
34.98
33.59
31.57
28.95
25.92
22.77
19.83
17.31
15.23
13.37
11.46
9.3
6.92
4.53
2.37
0.53
-1.17
-3.17
-5.89
-9.62
-14.3
-19.62
-25.1
-30.29
-34.93
-39.01
-42.76
-46.61
-51.07
-56.58
-63.26
-70.76
-78.07
-83.73
-86.11
-83.97
-76.9
-65.61
-51.69
-37.15
-23.74
-12.48
-3.52
3.62
9.61
15
20
24.59
28.74
32.44
35.73
38.6
40.94
42.61
43.5
43.72
43.54
43.32
43.36
43.75
44.36
44.89
44.97
44.37
42.99
40.92
38.36
35.51
32.57
29.65
26.86
24.3
21.94
19.73
17.46
14.94
12.09
8.98
5.86
3.02
0.53
-1.72
-4.08
-6.89
-10.36
-14.46
-18.97
-23.59
-27.97
-31.88
-35.22
-38.06
-40.73
-43.75
-47.69
-52.97
-59.5
-66.6
-72.98
-77.05
-77.33
-72.99
-64.13
-51.78
-37.64
-23.56
-11.02
-0.83
6.94
12.7
17.04
20.45
23.18
25.38
27.09
28.46
29.66
30.86
32.14
33.43
34.56
35.39
35.87
36.11
36.32
36.73
37.36
37.99
38.2
37.51
35.69
32.87
29.52
26.27
23.64
21.72
20.26
18.75
16.7
13.89
10.41
6.58
2.8
-0.69
-3.9
-7.06
-10.52
-14.51
-19.04
-23.84
-28.5
-32.62
-36.06
-38.98
-41.76
-44.89
-48.81
-53.84
-60.06
-67.23
-74.64
-81.01
-84.76
-84.36
-79
-68.94
-55.56
-40.9
-26.99
-15.14
-5.76
1.53
7.5
12.8
17.82
22.61
27.07
31.05
34.41
37.04
38.9
39.98
40.42
40.47
40.45
40.58
40.96
41.56
42.22
42.77
43.04
42.87
42.07
40.45
37.92
34.58
30.84
27.26
24.32
22.22
20.71
19.26
17.27
14.32
10.38
5.79
1.13
-3.1
-6.57
-9.31
-11.56
-13.74
-16.2
-19.13
-22.5
-26.16
-29.92
-33.64
-37.31
-41.01
-44.88
-49.08
-53.82
-59.22
-65.13
-71
-75.76
-78.15
-76.98
-71.7
-62.62
-50.87
-38.04
-25.63
-14.68
-5.61
1.64
7.36
11.88
15.46
18.32
20.69
22.82
24.93
27.13
29.36
31.52
33.48
35.19
36.73
38.23
39.72
41.11
42.15
42.52
41.99
40.55
38.46
36.13
33.96
32.17
30.64
29.05
26.95
24.03
20.26
15.91
11.38
7.11
3.42
0.35
-2.23
-4.67
-7.35
-10.63
-14.7
-19.5
-24.73
-29.95
-34.79
-39.14
-43.25
-47.67
-53.02
-59.73
-67.59
-75.67
-82.43
-86.12
-85.35
-79.58
-69.34
-56.02
-41.43
-27.2
-14.47
-3.77
4.88
11.7
16.99
21.02
24.09
26.55
28.72
30.87
33.12
35.45
37.71
39.76
41.49
42.91
44.13
45.28
46.4
47.43
48.18
48.42
47.96
46.74
44.83
42.39
39.55
36.44
33.11
29.53
25.72
21.69
17.52
13.33
9.31
5.61
2.33
-0.63
-3.53
-6.74
-10.68
-15.62
-21.54
-28.12
-34.88
-41.39
-47.47
-53.25
-59.11
-65.41
-72.38
-79.94
-87.78
-95.32
-101.75
-106.05
-107.06
-103.69
-95.25
-81.83
-64.52
-45.38
-27.04
-12.05
-2.15
2.31
2.49
0.71
-0.36
1.37
6.75
15.03
24.23
31.74
35.18
33
25.22
13.96
3.52
-0.26
8.22
32
69.54
114.25
156.03
184.5
192.77
179.93
151.33
116.52
85.53
65.54
58.96
63.43
73.38
82.3
84.96
78.85
64.47
44.59
22.79
2.07
-15.86
-30.5
-42
-50.44
-55.83
-58.45
-59.27
-60.17
-63.47
-70.97
-83.03
-98.23
-113.95
-127.22
-135.8
-138.59
-135.66
-127.82
-116.31
-102.29
-86.79
-70.62
-54.44
-38.81
-24.29
-11.37
-0.49
8.23
15.03
20.46
25.27
30.11
35.32
40.81
46.08
50.47
53.43
54.86
55.04
54.7
54.62
55.34
56.97
59.08
60.9
61.67
60.89
58.52
54.99
50.95
47.04
43.65
40.8
38.25
35.6
32.58
29.09
25.29
21.4
17.63
14.03
10.5
6.78
2.66
-1.98
-7.11
-12.55
-18.08
-23.49
-28.76
-34.08
-39.84
-46.55
-54.58
-64
-74.35
-84.62
-93.28
-98.61
-99.08
-93.79
-82.84
-67.36
-49.3
-30.89
-14.03
0.11
11.26
19.81
26.38
31.57
35.69
38.89
41.28
43
44.29
45.4
46.58
47.93
49.5
51.26
53.12
54.96
56.63
57.94
58.73
58.77
57.88
55.9
52.82
48.84
44.4
40.04
36.24
33.23
30.87
28.72
26.23
22.91
18.61
13.55
8.26
3.31
-0.96
-4.61
-8.08
-12.01
-16.87
-22.73
-29.19
-35.65
-41.56
-46.7
-51.22
-55.6
-60.42
-66.27
-73.51
-82.08
-91.31
-99.76
-105.54
-106.74
-102.15
-91.62
-76.26
-58.02
-39.08
-21.3
-5.81
6.95
17.12
25.09
31.33
36.29
40.33
43.76
46.79
49.5
51.89
53.88
55.36
56.28
56.66
56.62
56.3
55.84
55.28
54.59
53.74
52.64
51.29
49.69
47.87
45.88
43.77
41.53
39.07
36.22
32.76
28.58
23.83
18.82
13.99
9.67
5.96
2.66
-0.59
-4.2
-8.42
-13.34
-18.83
-24.62
-30.41
-35.98
-41.24
-46.35
-51.72
-57.86
-65.18
-73.65
-82.55
-90.46
-95.54
-95.94
-90.51
-79.16
-63
-44.07
-24.71
-6.9
8.11
19.93
28.75
34.99
39.05
41.28
42.14
42.15
41.95
42.04
42.7
43.85
45.2
46.45
47.46
48.21
48.78
49.25
49.57
49.63
49.25
48.34
46.88
44.93
42.58
39.87
36.76
33.16
28.94
24.08
18.71
13.13
7.75
2.87
-1.4
-5.26
-9.09
-13.31
-18.18
-23.67
-29.53
-35.35
-40.76
-45.61
-50.06
-54.58
-59.83
-66.44
-74.68
-84.26
-94.09
-102.49
-107.49
-107.37
-101.17
-89.1
-72.49
-53.44
-34.3
-16.95
-2.56
8.6
16.9
23.01
27.64
31.35
34.55
37.46
40.24
42.88
45.3
47.38
49
50.17
51
51.71
52.5
53.45
54.44
55.21
55.38
54.59
52.65
49.64
45.87
41.74
37.59
33.55
29.53
25.36
20.92
16.27
11.59
7.1
2.96
-0.85
-4.53
-8.32
-12.46
-17.11
-22.23
-27.6
-32.95
-38.03
-42.8
-47.47
-52.51
-58.48
-65.88
-74.88
-85.1
-95.46
-104.23
-109.32
-108.94
-102.19
-89.47
-72.51
-53.75
-35.66
-19.92
-7.09
3.24
11.99
19.98
27.59
34.74
41.06
46.21
50.09
52.86
54.81
56.2
57.13
57.53
57.35
56.71
55.94
55.43
55.46
56
56.67
56.89
56.08
53.92
50.44
45.95
40.9
35.73
30.67
25.75
20.84
15.64
9.94
3.6
-3.24
-10.2
-16.8
-22.58
-27.4
-31.47
-35.37
-39.79
-45.35
-52.4
-60.9
-70.34
-79.69
-87.46
-91.94
-91.6
-85.61
-74.2
-58.63
-40.9
-23.18
-7.24
5.83
15.77
22.92
27.97
31.62
34.37
36.53
38.14
39.17
39.62
39.59
39.31
39.03
38.96
39.18
39.71
40.46
41.24
41.77
41.75
40.96
39.32
36.94
34
30.59
26.63
21.93
16.33
9.9
2.93
-4.2
-11.12
-17.65
-23.73
-29.46
-34.97
-40.53
-46.54
-53.43
-61.38
-70.02
-78.22
-84.2
-86.06
-82.37
-72.77
-58.15
-40.4
-21.86
-4.58
10.05
21.55
30.11
36.26
40.57
43.43
45.11
45.85
45.96
45.77
45.61
45.63
45.83
46.05
46.11
45.93
45.55
45.11
44.72
44.37
43.87
42.81
40.74
37.36
32.71
27.24
21.66
16.68
12.64
9.36
6.27
2.67
-1.95
-7.64
-14.03
-20.53
-26.56
-31.81
-36.26
-40.29
-44.52
-49.7
-56.52
-65.33
-75.9
-87.2
-97.49
-104.56
-106.3
-101.39
-89.79
-72.89
-53.12
-33.26
-15.53
-1.12
9.93
18.36
25.1
30.83
35.81
40.06
43.57
46.41
48.76
50.74
52.37
53.55
54.09
54
53.39
52.54
51.77
51.33
51.29
51.51
51.55
50.87
48.93
45.43
40.44
34.49
28.29
22.53
17.61
13.46
9.72
5.87
1.49
-3.56
-9.17
-15.06
-20.94
-26.55
-31.82
-36.8
-41.68
-46.8
-52.62
-59.53
-67.77
-77.02
-86.28
-93.81
-97.51
-95.58
-87.16
-72.77
-54.2
-33.98
-14.63
2.08
15.35
25.29
32.56
37.89
41.85
44.83
47.06
48.66
49.78
50.47
50.82
50.89
50.76
50.55
50.38
50.39
50.67
51.23
51.93
52.48
52.47
51.54
49.44
46.23
42.18
37.7
33.15
28.72
24.42
20.15
15.85
11.52
7.34
3.43
-0.12
-3.45
-6.83
-10.58
-14.91
-19.85
-25.26
-30.89
-36.5
-41.93
-47.08
-51.98
-56.79
-61.87
-67.76
-75.01
-83.79
-93.5
-102.67
-109.08
-110.47
-105.37
-93.68
-76.78
-57.05
-37.09
-18.96
-3.75
8.32
17.65
24.82
30.33
34.56
37.82
40.4
42.58
44.58
46.51
48.3
49.75
50.69
51.08
51.06
50.98
51.17
51.82
52.77
53.6
53.74
52.71
50.34
46.83
42.65
38.36
34.4
30.94
27.85
24.78
21.37
17.41
12.95
8.27
3.72
-0.42
-4.12
-7.59
-11.17
-15.23
-19.99
-25.46
-31.41
-37.47
-43.28
-48.62
-53.49
-58.24
-63.42
-69.68
-77.41
-86.33
-95.35
-102.59
-105.87
-103.44
-94.62
-80.12
-61.88
-42.38
-23.85
-7.76
5.41
15.9
24.24
30.87
36.07
39.98
42.77
44.72
46.17
47.4
48.58
49.71
50.66
51.34
51.71
51.86
51.96
52.18
52.54
52.93
53.02
52.43
50.82
48.03
44.15
39.53
34.66
30.03
25.94
22.48
19.51
16.73
13.85
10.65
7.11
3.36
-0.29
-3.53
-6.2
-8.42
-10.54
-13.09
-16.56
-21.17
-26.83
-33.11
-39.43
-45.22
-50.17
-54.33
-58.15
-62.33
-67.72
-74.97
-84.27
-95.08
-105.98
-114.88
-119.43
-117.74
-108.97
-93.7
-73.74
-51.65
-30.02
-10.85
4.78
16.67
25.28
31.36
35.79
39.34
42.63
46.04
49.67
53.43
57.06
60.29
62.89
64.69
65.61
65.76
65.37
64.77
64.26
63.98
63.77
63.29
62.11
59.88
56.54
52.29
47.57
42.84
38.54
34.87
31.85
29.32
26.96
24.42
21.44
17.89
13.88
9.62
5.37
1.25
-2.74
-6.76
-11.02
-15.69
-20.85
-26.46
-32.44
-38.58
-44.65
-50.41
-55.71
-60.58
-65.33
-70.49
-76.66
-84.13
-92.61
-101.01
-107.55
-110.23
-107.41
-98.41
-83.8
-65.26
-45.12
-25.68
-8.64
5.2
15.83
23.76
29.63
34.02
37.34
39.88
41.87
43.55
45.19
46.99
49
51.06
52.87
54.17
54.89
55.18
55.36
55.7
56.17
56.45
56.04
54.53
51.82
48.22
44.29
40.62
37.55
35.11
33.03
30.89
28.25
24.87
20.71
16.05
11.38
7.21
3.86
1.26
-1.06
-3.83
-7.7
-12.95
-19.31
-26.14
-32.62
-38.2
-42.74
-46.56
-50.29
-54.66
-60.31
-67.62
-76.51
-86.26
-95.45
-102.14
-104.28
-100.37
-89.96
-73.96
-54.38
-33.75
-14.49
1.76
14.27
23.16
29.07
32.77
34.88
35.86
36.05
35.82
35.64
36.04
37.4
39.81
43.06
46.65
50.12
53.09
55.43
57.14
58.24
58.72
58.45
57.28
55.14
52.15
48.6
44.85
41.2
37.6
33.76
29.23
23.73
17.41
10.83
4.74
-0.27
-4.05
-7.01
-9.89
-13.42
-18.03
-23.72
-30.12
-36.69
-42.96
-48.71
-53.98
-59.17
-64.87
-71.78
-80.35
-90.6
-101.77
-112.33
-120.19
-123.2
-119.72
-109.27
-92.72
-72.08
-49.96
-28.84
-10.53
4.13
15.15
23.06
28.63
32.55
35.44
37.76
39.83
41.84
43.83
45.74
47.49
49.08
50.59
52.16
53.88
55.7
57.39
58.69
59.3
59.11
58.06
56.22
53.66
50.42
46.49
41.9
36.75
31.22
25.56
20.02
14.76
9.83
5.12
0.48
-4.25
-9.19
-14.41
-19.9
-25.62
-31.39
-37.03
-42.38
-47.4
-52.32
-57.62
-63.98
-71.99
-81.83
-92.96
-103.98
-112.86
-117.35
-115.72
-107.22
-92.46
-73.23
-51.96
-31.06
-12.39
3.05
15.09
24.12
30.79
35.89
40.09
43.9
47.6
51.13
54.26
56.7
58.32
59.2
59.64
59.97
60.41
60.97
61.52
61.82
61.66
60.88
59.35
56.93
53.54
49.12
43.73
37.52
30.7
23.5
16.16
8.9
1.93
-4.6
-10.65
-16.23
-21.48
-26.47
-31.29
-35.98
-40.6
-45.23
-49.91
-54.68
-59.65
-65.03
-71.3
-79.11
-88.95
-100.69
-113.2
-124.32
-131.34
-131.78
-124.3
-109.16
-88.18
-64.21
-40.23
-18.59
-0.54
13.76
24.95
33.94
41.53
48.14
53.9
58.76
62.68
65.7
67.98
69.73
71.2
72.59
74.1
75.84
77.78
79.73
81.35
82.29
82.25
81.02
78.53
74.78
69.91
64.16
57.89
51.49
45.25
39.19
33.13
26.79
19.98
12.73
5.28
-2.06
-9.09
-15.81
-22.42
-29.21
-36.43
-44.25
-52.68
-61.67
-71.08
-80.8
-90.75
-100.99
-111.73
-123.3
-135.88
-149.22
-162.32
-173.33
-179.93
-180.02
-172.5
-157.77
-137.76
-115.22
-92.83
-72.42
-54.59
-38.93
-24.55
-10.56
3.6
18.1
32.94
47.98
63
77.62
91.37
103.7
114.16
122.51
128.77
133.21
136.19
138.05
139.01
139.07
138.04
135.69
131.79
126.28
119.32
111.3
102.73
94.15
85.97
78.44
71.57
65.16
58.91
52.46
45.62
38.47
31.32
24.61
18.7
13.68
9.28
5
0.28
-5.26
-11.76
-19.04
-26.76
-34.58
-42.33
-50.11
-58.39
-67.82
-78.98
-92.08
-106.56
-120.97
-133.1
-140.46
-140.97
-133.61
-118.74
-98.03
-74.04
-49.56
-26.86
-7.38
8.47
21.03
31.06
39.34
46.44
52.64
58.02
62.58
66.33
69.34
71.63
73.26
74.27
74.75
74.88
74.95
75.14
75.53
75.94
76.05
75.48
73.95
71.47
68.24
64.66
61.06
57.67
54.5
51.41
48.24
44.87
41.31
37.6
33.78
29.83
25.61
21
15.93
10.49
4.86
-0.72
-6.13
-11.45
-17
-23.16
-30.22
-38.2
-46.7
-55.1
-62.73
-69.19
-74.56
-79.36
-84.48
-90.91
-99.4
-110.14
-122.38
-134.31
-143.21
-146.13
-140.73
-126.19
-103.53
-75.42
-45.33
-16.52
8.68
29.15
44.72
55.76
62.82
66.51
67.46
66.45
64.33
61.97
60.17
59.45
60.04
61.81
64.39
67.27
69.99
72.25
73.86
74.75
74.81
73.88
71.86
68.73
64.66
59.97
55
50.01
45.17
40.54
36.13
31.91
27.81
23.68
19.33
14.65
9.65
4.54
-0.38
-4.82
-8.64
-11.98
-15.17
-18.71
-23.04
-28.42
-34.8
-41.84
-48.95
-55.57
-61.36
-66.35
-71.06
-76.3
-82.95
-91.64
-102.38
-114.31
-125.75
-134.35
-137.68
-133.91
-122.4
-103.95
-80.7
-55.48
-31.08
-9.57
7.97
21.43
31.35
38.56
43.86
47.91
51.09
53.64
55.63
57.09
58.1
58.8
59.32
59.77
60.2
60.63
61.12
61.74
62.57
63.5
64.21
64.16
62.85
60.02
55.82
50.78
45.56
40.61
36.01
31.45
26.46
20.7
14.26
7.64
1.54
-3.45
-7.19
-10.1
-12.95
-16.55
-21.41
-27.55
-34.54
-41.77
-48.71
-55.07
-60.87
-66.44
-72.29
-79.07
-87.39
-97.41
-108.49
-118.98
-126.39
-128.07
-122.17
-108.32
-87.88
-63.5
-38.27
-14.79
5.25
21.23
33.22
41.63
47.02
49.96
51.12
51.24
51.04
51.05
51.46
52.2
53.02
53.64
53.98
54.16
54.42
54.95
55.8
56.77
57.44
57.32
55.94
53.08
48.82
43.6
38.06
32.83
28.26
24.31
20.61
16.68
12.22
7.32
2.36
-2.18
-5.98
-9.03
-11.66
-14.38
-17.68
-21.88
-27.02
-32.9
-39.15
-45.44
-51.57
-57.58
-63.71
-70.44
-78.26
-87.57
-98.33
-109.81
-120.45
-127.99
-130.04
-124.79
-111.8
-92.2
-68.53
-43.83
-20.86
-1.38
14.03
25.62
34.08
40.11
44.32
47.21
49.24
50.88
52.49
54.26
56.14
57.97
59.51
60.65
61.42
61.97
62.47
62.99
63.46
63.58
63.01
61.4
58.6
54.73
50.09
45.21
40.53
36.31
32.56
29
25.2
20.8
15.63
9.84
3.86
-1.8
-6.82
-11.21
-15.44
-20.13
-25.81
-32.54
-39.9
-47.17
-53.66
-59.06
-63.52
-67.54
-71.72
-76.66
-82.83
-90.53
-99.7
-109.57
-118.49
-124.07
-123.79
-115.97
-100.5
-79.11
-54.86
-31.08
-10.34
6.14
18.55
27.84
35.2
41.48
47.12
52.25
56.92
61.18
65.12
68.74
71.9
74.39
76.03
76.79
76.9
76.73
76.6
76.68
76.86
76.79
76
74.09
70.81
66.25
60.8
55.06
49.7
45.18
41.58
38.62
35.74
32.41
28.25
23.18
17.36
11.11
4.83
-1.17
-6.64
-11.58
-16.21
-20.97
-26.3
-32.52
-39.6
-47.25
-55
-62.37
-69.1
-75.15
-80.79
-86.61
-93.43
-102.01
-112.58
-124.39
-135.47
-142.98
-143.93
-136.25
-119.58
-95.44
-66.9
-37.54
-10.56
12.02
29.48
42.23
51.29
57.65
62.1
65.08
66.93
67.96
68.62
69.31
70.25
71.34
72.28
72.73
72.59
72.02
71.37
70.96
70.81
70.67
70.07
68.56
65.88
62.06
57.4
52.35
47.35
42.66
38.36
34.34
30.33
26.1
21.58
16.8
11.95
7.26
2.89
-1.11
-4.85
-8.54
-12.47
-16.99
-22.36
-28.63
-35.61
-42.8
-49.59
-55.49
-60.29
-64.31
-68.28
-73.23
-80.1
-89.39
-100.72
-112.65
-122.87
-128.64
-127.6
-118.59
-102.04
-79.97
-55.31
-31.15
-9.91
7.08
19.58
28.12
33.66
37.18
39.48
41.15
42.55
43.92
45.39
47.06
49.01
51.21
53.57
55.93
58.16
60.19
62.04
63.7
65.04
65.77
65.45
63.76
60.6
56.19
51.01
45.6
40.37
35.49
30.85
26.19
21.29
16.11
10.85
5.79
1.1
-3.26
-7.65
-12.57
-18.4
-25.19
-32.63
-40.15
-47.2
-53.49
-59.08
-64.44
-70.29
-77.44
-86.53
-97.72
-110.34
-122.66
-132.12
-135.87
-131.76
-119.07
-98.91
-73.95
-47.53
-22.72
-1.55
15.22
27.86
37.16
43.97
49.01
52.76
55.62
57.89
59.79
61.45
62.87
64.02
64.87
65.49
65.98
66.5
67.13
67.85
68.47
68.64
67.95
66.04
62.76
58.25
52.96
47.51
42.42
37.93
33.83
29.65
24.88
19.28
13.01
6.53
0.45
-4.85
-9.32
-13.32
-17.46
-22.32
-28.23
-35.12
-42.51
-49.68
-56.03
-61.3
-65.7
-69.94
-75.01
-81.9
-91.26
-103.03
-116.25
-128.87
-138.1
-141.04
-135.66
-121.5
-100.08
-74.4
-48.03
-23.95
-3.88
11.84
23.83
33.04
40.23
45.94
50.52
54.29
57.59
60.65
63.53
66.13
68.27
69.8
70.74
71.22
71.5
71.81
72.29
72.89
73.29
73.04
71.65
68.85
64.72
59.69
54.38
49.25
44.43
39.61
34.32
28.2
21.3
14.13
7.41
1.76
-2.68
-6.32
-9.97
-14.42
-20.16
-27.12
-34.83
-42.63
-50.03
-56.8
-63.12
-69.35
-76.06
-83.89
-93.3
-104.22
-115.74
-125.85
-131.89
-131.19
-122.14
-104.83
-81.26
-54.65
-28.52
-5.61
12.69
26.31
36.15
43.35
48.77
52.82
55.46
56.58
56.25
55.05
53.99
54.21
56.46
60.66
65.8
70.32
72.62
71.93
68.58
64.05
60.21
58.44
58.86
60.15
60.33
58.11
53.89
50.09
50.26
57.7
73.87
97.37
124.06
148.04
162.97
163.38
145.91
110.3
60.41
4.59
-45.38
-76.85
-80.47
-53.99
-3.97
56
109.78
144.56
154.65
142.76
116.68
84.95
52.77
20.53
-14.5
-55.1
-100.78
-146.74
-184.75
-206.63
-207.07
-185.05
-143.55
-87.99
-25.12
37.77
92.45
131.18
146.31
132.6
89.6
22.95
-55.9
-132.14
-191.25
-223.73
-223.47
-191.27
-132.31
-54.28
34.09
123.53
204.57
268.4
305.65
315.31
297.84
257.22
199.92
133.69
67.02
9.12
-30.49
-47.63
-34.69
4.91
60.41
116.59
158.62
176.64
167.54
133.79
75.63
3.96
-75.91
-157.66
-232.81
-290.86
-321.92
-320.09
-255.59
-177.56
-95.49
-25.82
18.24
29.6
8.35
-38.97
-101.3
-165.35
-223.14
-258.94
-266.56
-244.31
-194.53
-122.9
-38.27
48.65
125.71
177.85
201.47
193.95
158.13
100.83
30.55
-44.56
-116.7
-178.81
-226.1
-249.11
-243.18
-207.83
-148.56
-76.63
-7.07
46.5
73.68
68.81
34.88
-20.81
-86.83
-149.85
-196.9
-218.9
-207.88
-162.56
-87.56
7.99
111.18
208.54
288.61
344.02
369.37
369.57
348.9
311.65
259.79
194.84
120.24
43.29
-24.73
-75.79
-96.52
-86.01
-52.91
-14.62
11.6
15.16
-5.91
-47.41
-109.18
-181.55
-261.6
-345.72
-429.94
-505.45
-560.44
-585.64
-539.02
-475.61
-401.01
-326.79
-263.85
-224.9
-217.79
-242.67
-292.32
-353.79
-416.75
-464.44
-489.37
-463.07
-377.44
-245.03
-91.47
59.02
179.6
276.97
343.88
375.96
369.69
323.74
246.89
158.88
81.51
30.62
9.19
10.8
28.77
52.46
71.06
77.97
80.86
89.19
108.34
134.3
159.29
176.29
180.92
173.19
159.5
150.76
156.46
181.29
223.6
275.06
325.23
362.9
378.99
369.03
333.53
275.78
201.83
120.36
40.84
-26.31
-73.05
-95.1
-91.96
-66.48
-24.06
28.72
85.01
137.37
178.22
200.41
198.82
172.3
124.54
63.04
-2.56
-62.13
-107.22
-132.32
-134.61
-113.44
-69.71
-6.42
70.16
149.72
219.63
266.89
281.24
259
204.85
130.75
52.32
-16.09
-65.89
-94.63
-105.4
-107.89
-110.59
-118.78
-132.46
-147.05
-153.91
-152.24
-145.35
-137.27
-129.59
-121.33
-108.11
-84.73
-47.8
2.67
62.46
124.94
181.93
225
247.74
247.64
227.05
192.64
153.08
115.4
83.5
57.05
32.73
7.25
-20.14
-46.97
-68.78
-81.19
-82.3
-72.98
-56.91
-39.52
-26.15
-20.05
-21.33
-26.83
-31.36
-30.01
-20.03
-2.08
20.13
41.78
59.22
71.05
77.95
81.26
81.56
78.3
70.55
58.04
41.99
24.83
9.14
-3.57
-13.45
-21.87
-30.19
-38.48
-45.18
-47.66
-43.5
-31.62
-13.09
9.01
30.15
45.37
50.3
42.05
20.07
-13.48
-53.87
-94.84
-130.11
-155.08
-167.88
-169.44
-162.55
-150.5
-135.98
-120.69
-105.72
-92.07
-81
-73.87
-71.6
-74.02
-79.49
-85.27
-88.42
-86.91
-80.32
-69.91
-58.15
-47.64
-40.27
-36.76
-36.61
-38.63
-41.35
-43.49
-44
-42.03
-36.96
-28.55
-17.07
-3.49
10.76
24.09
35.08
42.78
46.83
47.45
45.34
41.41
36.63
31.77
27.36
23.64
20.69
18.51
17.15
16.67
17.06
18.2
19.76
21.13
21.62
20.51
17.24
11.56
3.68
-5.66
-15.17
-23.19
-28.03
-28.36
-23.64
-14.22
-1.35
13.26
27.76
40.61
50.74
57.6
61.05
61.36
59.06
55.07
50.4
46.12
43.09
41.76
42.2
44.07
46.81
49.8
52.44
54.26
55
54.57
53.13
50.91
48.18
45.1
41.65
37.73
33.18
28
22.32
16.44
10.63
5.13
0.1
-4.44
-8.52
-12.29
-16.01
-20.01
-24.66
-30.14
-36.41
-43.2
-50.13
-56.98
-63.8
-71
-79.2
-88.96
-100.41
-112.87
-124.71
-133.56
-136.9
-132.89
-121.02
-102.43
-79.62
-55.63
-33.18
-13.96
1.59
13.99
24.21
33.19
41.51
49.36
56.6
63.06
68.58
73.09
76.6
79.1
80.55
80.92
80.3
78.91
77.15
75.47
74.17
73.28
72.52
71.34
69.17
65.64
60.69
54.7
48.25
42
36.35
31.39
26.87
22.36
17.44
11.87
5.6
-1.22
-8.37
-15.54
-22.44
-28.86
-34.72
-40.21
-45.82
-52.24
-60.1
-69.67
-80.49
-91.24
-99.92
-104.36
-102.84
-94.72
-80.7
-62.64
-42.99
-24.02
-7.24
6.77
18.24
27.81
36.14
43.68
50.64
57.02
62.72
67.57
71.36
73.98
75.34
75.58
74.89
73.65
72.19
70.83
69.75
68.98
68.41
67.77
66.78
65.14
62.68
59.36
55.3
50.74
46.01
41.41
37.18
33.39
29.92
26.53
22.89
18.84
14.36
9.69
5.19
1.16
-2.33
-5.49
-8.75
-12.57
-17.23
-22.72
-28.72
-34.73
-40.31
-45.21
-49.53
-53.64
-58.1
-63.55
-70.45
-78.89
-88.37
-97.72
-105.18
-108.8
-107.04
-99.25
-86.05
-69.11
-50.68
-32.91
-17.29
-4.33
6.2
15
22.78
29.97
36.68
42.73
47.93
52.08
55.16
57.23
58.35
58.56
57.89
56.41
54.38
52.23
50.48
49.48
49.26
49.44
49.41
48.6
46.88
44.53
42.14
40.23
38.99
38.21
37.39
36.11
34.15
31.61
28.76
25.88
23.16
20.65
18.33
16.14
13.98
11.7
9.18
6.32
3.14
-0.22
-3.58
-6.75
-9.74
-12.69
-15.89
-19.6
-23.96
-28.83
-33.91
-38.81
-43.2
-47.02
-50.44
-53.86
-57.8
-62.71
-68.78
-75.75
-82.75
-88.42
-91.15
-89.61
-83.25
-72.49
-58.73
-43.82
-29.57
-17.19
-7.16
0.7
6.9
11.99
16.34
20.14
23.47
26.37
28.89
31.08
32.98
34.57
35.77
36.55
36.91
36.98
36.94
36.9
36.88
36.7
36.14
35.04
33.38
31.37
29.3
27.41
25.82
24.46
23.16
21.79
20.32
18.79
17.25
15.72
14.17
12.59
11.02
9.49
8.06
6.69
5.26
3.67
1.82
-0.28
-2.54
-4.81
-6.99
-9.04
-10.92
-12.68
-14.31
-15.86
-17.38
-18.98
-20.77
-22.89
-25.41
-28.27
-31.31
-34.25
-36.87
-39.07
-41.06
-43.28
-46.27
-50.45
-55.9
-62.13
-68.14
-72.61
-74.21
-72.04
-65.89
-56.35
-44.64
-32.28
-20.68
-10.79
-3.03
2.74
6.92
10.04
12.51
14.65
16.66
18.71
20.91
23.31
25.84
28.23
30.1
31.1
31.08
30.19
28.86
27.59
26.76
26.53
26.75
27.13
27.36
27.19
26.49
25.25
23.57
21.62
19.61
17.74
16.09
14.67
13.37
12.09
10.77
9.46
8.31
7.47
6.98
6.75
6.54
6.09
5.23
3.95
2.44
0.98
-0.25
-1.3
-2.45
-4.14
-6.71
-10.21
-14.33
-18.48
-22.03
-24.56
-26.04
-26.87
-27.74
-29.34
-32.04
-35.75
-39.9
-43.77
-46.72
-48.33
-48.48
-47.22
-44.61
-40.89
-36.65
-32.77
-29.92
-27.88
-25.18
-19.56
-9.23
5.89
23.53
39.86
51.08
55.14
52.52
45.62
37.4
30
24.22
19.84
16.5
14.22
13.43
14.38
16.81
19.82
22.25
23.12
22.06
19.46
16.2
13.23
11.15
10.03
9.45
8.76
7.46
5.36
2.7
-0.08
-2.54
-4.4
-5.64
-6.44
-7.11
-7.93
-9.07
-10.57
-12.36
-14.32
-16.39
-18.56
-20.87
-23.34
-25.89
-28.41
-30.76
-32.92
-34.96
-37.05
-39.44
-42.31
-45.83
-50.08
-54.92
-59.87
-64.11
-66.6
-66.32
-62.73
-55.95
-46.8
-36.6
-26.68
-18.09
-11.28
-6.23
-2.51
0.36
2.81
5.07
7.2
9.14
10.9
12.49
13.99
15.48
16.9
18.15
19.07
19.64
19.94
20.18
20.54
21.1
21.73
22.21
22.28
21.83
20.85
19.52
18.08
16.74
15.62
14.67
13.74
12.61
11.07
9.03
6.46
3.47
0.27
-2.96
-6.04
-8.93
-11.67
-14.41
-17.31
-20.48
-23.86
-27.3
-30.58
-33.54
-36.21
-38.79
-41.66
-45.24
-49.84
-55.48
-61.76
-67.75
-72.2
-73.83
-71.79
-65.95
-56.98
-46.15
-34.83
-24.14
-14.71
-6.68
0.01
5.46
9.73
12.86
15.07
16.73
18.32
20.22
22.56
25.17
27.64
29.65
30.95
31.61
31.82
31.89
32.11
32.78
34.23
36.68
40.04
43.79
47.08
48.99
48.96
47.06
43.85
40.12
36.44
32.91
29.33
25.45
21.31
17.21
13.57
10.53
7.8
4.77
0.87
-4.16
-9.99
-15.94
-21.24
-25.34
-28.16
-30.11
-31.95
-34.46
-38.34
-43.91
-51.03
-58.97
-66.49
-72.05
-74.2
-72.05
-65.53
-55.43
-43.16
-30.3
-18.12
-7.45
1.45
8.64
14.36
18.86
22.34
24.95
26.87
28.32
29.56
30.9
32.55
34.61
36.97
39.38
41.57
43.34
44.63
45.4
45.62
45.21
44.27
43.13
42.39
42.67
44.33
47.12
50.2
52.45
52.9
51.11
47.18
41.64
35.08
27.99
20.67
13.38
6.35
-0.19
-6.15
-11.62
-16.86
-22.1
-27.42
-32.73
-37.76
-42.32
-46.36
-50.13
-54.08
-58.75
-64.5
-71.21
-78.18
-84.1
-87.38
-86.55
-80.77
-70.14
-55.72
-39.23
-22.56
-7.31
5.54
15.61
23
28.03
31.07
32.51
32.81
32.49
32.12
32.21
33.02
34.57
36.65
38.94
41.2
43.27
45.09
46.6
47.73
48.34
48.27
47.46
45.9
43.66
40.82
37.55
34.03
30.46
26.99
23.68
20.49
17.33
14.14
10.89
7.58
4.16
0.51
-3.5
-7.91
-12.59
-17.27
-21.66
-25.59
-29.16
-32.65
-36.53
-41.3
-47.35
-54.87
-63.6
-72.71
-80.78
-86.02
-86.78
-82.06
-71.94
-57.54
-40.73
-23.55
-7.72
5.71
16.36
24.35
30.05
33.93
36.39
37.8
38.54
38.98
39.51
40.45
41.86
43.64
45.46
47.05
48.25
49.15
49.93
50.75
51.58
52.15
52.09
51.1
49.03
46.05
42.45
38.66
35
31.64
28.5
25.42
22.19
18.68
14.96
11.19
7.59
4.32
1.36
-1.45
-4.36
-7.69
-11.62
-16.21
-21.33
-26.72
-32.04
-36.99
-41.45
-45.53
-49.63
-54.32
-60.19
-67.53
-76.11
-84.99
-92.63
-97.14
-96.83
-90.78
-79.13
-63.13
-44.77
-26.23
-9.37
4.59
15.29
22.94
28.2
31.84
34.54
36.79
38.86
40.82
42.64
44.27
45.67
46.84
47.82
48.69
49.51
50.34
51.2
52.06
52.75
53.07
52.76
51.65
49.65
46.83
43.43
39.74
36.06
32.65
29.6
26.91
24.47
22.12
19.68
17.03
14.13
10.99
7.72
4.47
1.42
-1.34
-3.8
-6.13
-8.69
-11.86
-15.9
-20.83
-26.31
-31.75
-36.61
-40.57
-43.75
-46.66
-50.01
-54.49
-60.43
-67.57
-75.02
-81.3
-84.67
-83.6
-77.24
-65.78
-50.4
-33.02
-15.75
-0.37
12.05
21.17
27.27
30.93
32.82
33.54
33.64
33.56
33.67
34.24
35.41
37.11
39.14
41.19
42.99
44.36
45.29
45.91
46.36
46.67
46.7
46.19
44.86
42.58
39.46
35.83
32.14
28.74
25.83
23.37
21.21
19.16
17.04
14.71
12.05
9
5.65
2.19
-1.13
-4.07
-6.62
-8.92
-11.3
-14.07
-17.47
-21.53
-26.1
-30.91
-35.62
-39.93
-43.71
-47.02
-50.24
-53.93
-58.66
-64.76
-72.1
-79.94
-86.93
-91.47
-92
-87.52
-77.87
-63.91
-47.33
-30.18
-14.4
-1.31
8.6
15.58
20.36
23.74
26.37
28.66
30.78
32.79
34.72
36.61
38.48
40.28
41.89
43.19
44.07
44.53
44.72
44.82
45.02
45.34
45.64
45.6
44.85
43.2
40.64
37.41
33.84
30.27
26.97
24.05
21.56
19.44
17.51
15.57
13.39
10.85
7.95
4.79
1.51
-1.73
-4.88
-7.88
-10.74
-13.53
-16.41
-19.6
-23.3
-27.55
-32.14
-36.69
-40.8
-44.32
-47.42
-50.6
-54.48
-59.59
-66.08
-73.55
-80.98
-86.85
-89.49
-87.58
-80.56
-68.94
-54.17
-38.22
-22.96
-9.75
0.8
8.75
14.52
18.65
21.63
23.82
25.48
26.82
28.02
29.22
30.56
32.09
33.86
35.8
37.82
39.81
41.65
43.31
44.7
45.7
46.16
45.92
44.86
43.02
40.56
37.7
34.66
31.6
28.61
25.71
22.93
20.23
17.58
14.91
12.16
9.33
6.44
3.64
1.02
-1.34
-3.5
-5.67
-8.12
-11.16
-14.97
-19.54
-24.65
-29.95
-35.02
-39.59
-43.56
-47.12
-50.69
-54.82
-60.06
-66.67
-74.42
-82.45
-89.35
-93.44
-93.25
-88
-77.87
-64.01
-48.2
-32.32
-17.91
-5.85
3.62
10.82
16.28
20.56
24.07
27.05
29.66
31.97
34.06
35.96
37.69
39.25
40.64
41.86
42.94
43.95
44.94
45.94
46.91
47.78
48.35
48.42
47.71
46.06
43.47
40.12
36.41
32.79
29.63
27.07
25.01
23.12
21.1
18.68
15.79
12.58
9.29
6.16
3.36
0.89
-1.44
-3.88
-6.74
-10.25
-14.46
-19.26
-24.4
-29.56
-34.48
-39.02
-43.18
-47.17
-51.33
-56.11
-61.91
-68.88
-76.64
-84.13
-89.7
-91.53
-88.24
-79.42
-65.89
-49.47
-32.37
-16.54
-3.22
7.21
14.97
20.6
24.65
27.57
29.71
31.43
33.04
34.85
37.03
39.53
42.15
44.6
46.62
48.07
48.99
49.53
49.85
50.05
50.11
49.92
49.32
48.23
46.65
44.62
42.25
39.59
36.71
33.64
30.44
27.26
24.26
21.59
19.3
17.27
15.24
12.91
10.06
6.7
3.04
-0.61
-3.99
-7.04
-9.95
-13.05
-16.65
-20.89
-25.73
-30.92
-36.12
-41.12
-45.81
-50.27
-54.73
-59.55
-65.11
-71.75
-79.5
-87.89
-95.86
-101.8
-103.98
-101.03
-92.47
-78.91
-61.92
-43.57
-25.82
-10.12
2.74
12.62
19.8
24.8
28.25
30.75
32.86
34.98
37.31
39.86
42.48
44.99
47.18
48.95
50.29
51.25
51.94
52.49
53
53.46
53.79
53.76
53.15
51.76
49.52
46.54
43.07
39.44
35.93
32.68
29.63
26.66
23.6
20.43
17.19
14.02
11
8.17
5.48
2.87
0.26
-2.42
-5.3
-8.51
-12.2
-16.41
-21.04
-25.86
-30.63
-35.13
-39.28
-43.21
-47.19
-51.72
-57.27
-64.15
-72.17
-80.44
-87.41
-91.21
-90.23
-83.63
-71.74
-55.93
-38.22
-20.76
-5.24
7.35
16.82
23.51
28.06
31.13
33.2
34.57
35.41
35.93
36.41
37.15
38.36
40.09
42.17
44.29
46.19
47.72
48.87
49.68
50.13
50.12
49.5
48.14
46.07
43.42
40.38
37.17
33.97
30.93
28.12
25.52
23.04
20.52
17.76
14.68
11.32
7.81
4.34
1.11
-1.84
-4.55
-7.21
-10.06
-13.42
-17.5
-22.44
-28.12
-34.21
-40.24
-45.78
-50.64
-55.01
-59.47
-64.79
-71.64
-80.15
-89.71
-98.94
-105.91
-108.7
-105.96
-97.37
-83.72
-66.68
-48.31
-30.53
-14.77
-1.74
8.47
16.22
22.08
26.65
30.45
33.88
37.18
40.46
43.7
46.78
49.45
51.5
52.81
53.42
53.53
53.42
53.31
53.29
53.28
53.13
52.66
51.7
50.14
47.91
45.04
41.64
37.92
34.15
30.57
27.37
24.59
22.15
19.85
17.54
15.04
12.3
9.35
6.3
3.25
0.22
-2.89
-6.32
-10.28
-14.89
-20.02
-25.36
-30.51
-35.17
-39.23
-42.87
-46.46
-50.53
-55.57
-62
-69.92
-78.94
-88
-95.46
-99.42
-98.25
-91.15
-78.53
-61.88
-43.37
-25.19
-9.02
4.31
14.65
22.37
28.03
32.18
35.3
37.74
39.76
41.53
43.17
44.71
46.24
47.82
49.53
51.36
53.23
54.98
56.37
57.26
57.55
57.24
56.34
54.84
52.73
49.99
46.72
43.12
39.46
35.98
32.83
30
27.4
24.9
22.39
19.8
17.05
14.11
10.91
7.47
3.87
0.25
-3.24
-6.64
-10.1
-13.94
-18.47
-23.77
-29.7
-35.85
-41.72
-46.92
-51.33
-55.22
-59.19
-64.05
-70.52
-78.94
-88.95
-99.33
-108.12
-113.07
-112.3
-104.94
-91.46
-73.64
-53.98
-35.05
-18.77
-6.05
3.21
9.81
14.82
19.13
23.32
27.55
31.74
35.69
39.25
42.39
45.14
47.54
49.6
51.3
52.64
53.68
54.54
55.4
56.34
57.25
57.83
57.66
56.38
53.9
50.47
46.64
43.02
40.02
37.68
35.65
33.43
30.56
26.9
22.64
18.23
14.11
10.55
7.51
4.62
1.34
-2.84
-8.22
-14.73
-22.01
-29.48
-36.52
-42.71
-47.95
-52.49
-56.94
-62.11
-68.84
-77.62
-88.32
-99.86
-110.29
-117.14
-118.08
-111.71
-98.06
-78.69
-56.24
-33.59
-13.15
3.73
16.79
26.57
33.94
39.7
44.35
48.13
51.18
53.65
55.73
57.66
59.53
61.31
62.83
63.94
64.56
64.76
64.67
64.38
63.82
62.81
61.11
58.64
55.48
51.9
48.23
44.71
41.43
38.36
35.36
32.34
29.25
26.05
22.69
19.13
15.36
11.44
7.53
3.81
0.4
-2.72
-5.81
-9.28
-13.55
-18.84
-25.04
-31.68
-38.05
-43.53
-47.85
-51.21
-54.32
-58.08
-63.36
-70.7
-80.02
-90.51
-100.67
-108.49
-111.9
-109.35
-100.31
-85.52
-66.8
-46.57
-27.15
-10.23
3.36
13.64
21.2
26.92
31.58
35.75
39.66
43.3
46.49
49.11
51.16
52.74
53.97
54.92
55.57
55.92
56.04
56.1
56.29
56.64
57
57.06
56.43
54.88
52.34
48.94
44.92
40.62
36.37
32.45
29.01
26.05
23.43
20.88
18.16
15.12
11.74
8.12
4.39
0.62
-3.23
-7.23
-11.54
-16.24
-21.35
-26.81
-32.38
-37.76
-42.7
-47.11
-51.18
-55.46
-60.68
-67.52
-76.28
-86.56
-97.16
-106.2
-111.52
-111.25
-104.42
-91.3
-73.42
-53.11
-32.92
-14.89
-0.19
11.01
19.23
25.31
30.03
33.98
37.43
40.56
43.47
46.27
49.03
51.78
54.38
56.67
58.46
59.64
60.29
60.59
60.75
60.9
60.95
60.62
59.57
57.5
54.34
50.32
45.86
41.45
37.51
34.25
31.65
29.46
27.32
24.93
22.09
18.82
15.26
11.6
7.98
4.46
0.98
-2.61
-6.47
-10.73
-15.46
-20.61
-25.97
-31.17
-35.85
-39.84
-43.26
-46.63
-50.71
-56.26
-63.72
-73.08
-83.61
-93.93
-102.11
-106.1
-104.19
-95.59
-80.79
-61.55
-40.41
-20.07
-2.58
11.01
20.74
27.37
31.92
35.32
38.12
40.57
42.75
44.73
46.67
48.74
51.04
53.51
55.88
57.88
59.3
60.22
60.88
61.54
62.29
62.93
63.01
62.09
59.9
56.52
52.31
47.77
43.35
39.33
35.81
32.71
29.85
27.01
23.92
20.36
16.24
11.63
6.78
2.03
-2.27
-5.92
-8.95
-11.62
-14.29
-17.4
-21.26
-25.98
-31.4
-37.2
-42.94
-48.26
-53.05
-57.45
-61.93
-67.1
-73.53
-81.39
-90.2
-98.68
-104.92
-106.87
-103.01
-92.92
-77.51
-58.74
-39.04
-20.64
-5.03
7.15
15.98
21.94
25.61
27.55
28.21
28.08
27.69
27.54
28.12
29.67
32.12
35.12
38.18
40.9
43.07
44.8
46.25
47.52
48.47
48.78
48.11
46.27
43.39
39.85
36.1
32.51
29.21
26.09
22.88
19.3
15.24
10.8
6.31
2.14
-1.46
-4.5
-7.32
-10.42
-14.22
-18.88
-24.23
-29.8
-35.11
-39.81
-43.89
-47.68
-51.75
-56.73
-63.17
-71.21
-80.43
-89.6
-96.88
-100.17
-97.79
-89.04
-74.58
-56.29
-36.65
-18.06
-2.17
10.3
19.45
25.87
30.26
33.25
35.34
36.93
38.3
39.67
41.11
42.58
43.97
45.16
46.04
46.62
47
47.32
47.74
48.3
48.83
48.98
48.29
46.37
43.1
38.71
33.68
28.61
23.98
20.02
16.67
13.66
10.74
7.75
4.71
1.8
-0.8
-3.01
-4.99
-7.06
-9.64
-12.98
-17.11
-21.76
-26.51
-30.96
-34.91
-38.45
-41.89
-45.73
-50.51
-56.67
-64.42
-73.45
-82.76
-90.68
-95.16
-94.39
-87.41
-74.59
-57.52
-38.58
-20.15
-4.01
8.93
18.63
25.52
30.23
33.33
35.27
36.4
37.02
37.41
37.81
38.38
39.18
40.14
41.11
41.95
42.56
43
43.4
43.85
44.33
44.64
44.47
43.52
41.66
38.98
35.78
32.43
29.26
26.43
23.96
21.68
19.34
16.73
13.72
10.34
6.74
3.15
-0.19
-3.18
-5.86
-8.44
-11.24
-14.58
-18.59
-23.21
-28.13
-32.94
-37.32
-41.17
-44.68
-48.31
-52.62
-58.13
-65.11
-73.32
-81.84
-89.15
-93.33
-92.62
-86.05
-73.84
-57.42
-38.98
-20.84
-4.77
8.31
18.24
25.34
30.09
32.92
34.2
34.28
33.62
32.7
31.99
31.84
32.43
33.73
35.53
37.57
39.56
41.32
42.74
43.82
44.54
44.79
44.41
43.21
41.1
38.15
34.64
30.88
27.18
23.62
20.11
16.44
12.45
8.16
3.76
-0.42
-4.13
-7.35
-10.32
-13.51
-17.37
-22.11
-27.63
-33.47
-39.11
-44.07
-48.23
-51.81
-55.38
-59.69
-65.46
-73.13
-82.49
-92.56
-101.57
-107.3
-107.72
-101.61
-89.1
-71.61
-51.53
-31.42
-13.42
1.23
12.28
20.18
25.71
29.7
32.84
35.63
38.39
41.31
44.38
47.42
50.14
52.2
53.43
53.94
54.02
54.04
54.3
54.82
55.43
55.79
55.61
54.63
52.76
50
46.47
42.41
38.14
33.95
30.04
26.38
22.79
19.04
14.95
10.58
6.17
2.02
-1.66
-4.82
-7.72
-10.74
-14.32
-18.74
-24
-29.83
-35.78
-41.41
-46.41
-50.81
-54.99
-59.57
-65.29
-72.69
-81.8
-91.93
-101.54
-108.51
-110.64
-106.44
-95.62
-79.32
-59.79
-39.65
-21.16
-5.68
6.37
15.29
21.75
26.42
29.86
32.43
34.41
36
37.37
38.69
40.1
41.7
43.48
45.37
47.26
49.12
50.97
52.83
54.64
56.14
56.95
56.69
55.13
52.41
48.92
45.2
41.68
38.58
35.85
33.18
30.23
26.7
22.48
17.69
12.64
7.75
3.32
-0.59
-4.21
-7.96
-12.3
-17.43
-23.26
-29.4
-35.39
-40.89
-45.86
-50.52
-55.37
-61
-67.97
-76.58
-86.52
-96.71
-105.3
-109.97
-108.72
-100.51
-85.8
-66.43
-45.09
-24.49
-6.59
7.7
18.49
26.46
32.52
37.41
41.66
45.55
49.26
52.83
56.25
59.45
62.27
64.55
66.14
66.95
66.95
66.23
64.92
63.18
61.15
58.89
56.34
53.41
49.96
45.98
41.57
37.05
32.73
28.89
25.61
22.75
20
17.03
13.57
9.54
5.11
0.62
-3.53
-7.11
-10.16
-13.04
-16.34
-20.57
-25.95
-32.26
-38.96
-45.41
-51.15
-56.12
-60.64
-65.31
-70.85
-77.84
-86.55
-96.65
-107.01
-115.8
-120.73
-119.73
-111.72
-96.99
-77.23
-54.99
-32.91
-13.06
3.43
16.35
26.05
33.23
38.59
42.77
46.24
49.33
52.14
54.7
56.99
58.99
60.74
62.28
63.61
64.69
65.49
66.04
66.43
66.75
66.95
66.81
65.96
64.06
60.94
56.73
51.83
46.77
42.07
38
34.53
31.38
28.19
24.62
20.51
16
11.4
7.08
3.28
-0.01
-3.1
-6.45
-10.47
-15.33
-20.87
-26.73
-32.45
-37.72
-42.46
-46.81
-51.08
-55.73
-61.25
-68.1
-76.51
-86.16
-95.91
-103.88
-107.77
-105.61
-96.5
-81.01
-61.07
-39.34
-18.42
-0.21
14.4
25.37
33.17
38.41
41.67
43.41
44.1
44.22
44.28
44.74
45.85
47.65
49.9
52.26
54.36
55.98
57.05
57.74
58.24
58.67
58.96
58.82
57.83
55.6
51.99
47.2
41.75
36.3
31.37
27.16
23.52
20.08
16.47
12.46
8.03
3.31
-1.5
-6.21
-10.72
-15.09
-19.48
-24.16
-29.31
-34.95
-40.86
-46.63
-51.78
-55.99
-59.19
-61.69
-64.1
-67.32
-72.23
-79.36
-88.51
-98.45
-107.04
-111.77
-110.5
-102.33
-87.85
-69.01
-48.39
-28.4
-10.72
3.86
15.29
23.88
30.09
34.39
37.31
39.41
41.28
43.38
45.92
48.79
51.6
53.9
55.4
56.08
56.24
56.32
56.7
57.48
58.44
59.15
59.15
58.15
56.11
53.18
49.57
45.57
41.43
37.39
33.64
30.23
27.07
23.9
20.47
16.68
12.69
8.77
5.19
1.93
-1.34
-5.14
-9.94
-15.84
-22.5
-29.25
-35.46
-40.73
-45.14
-49.11
-53.26
-58.16
-64.18
-71.38
-79.38
-87.28
-93.66
-96.79
-95.05
-87.45
-74.14
-56.46
-36.66
-17.23
-0.21
13.27
23.1
29.79
34.14
36.83
38.29
38.85
38.76
38.39
38.14
38.39
39.31
40.9
42.96
45.15
47.13
48.59
49.4
49.56
49.2
48.43
47.3
45.69
43.42
40.31
36.36
31.74
26.78
21.87
17.25
13.04
9.14
5.3
1.23
-3.35
-8.57
-14.42
-20.71
-27.14
-33.39
-39.18
-44.45
-49.35
-54.3
-59.93
-66.88
-75.57
-85.87
-96.9
-107.02
-114.13
-116.25
-112.16
-101.8
-86.36
-67.88
-48.69
-30.7
-15.05
-2.07
8.56
17.46
25.18
32.11
38.39
43.95
48.68
52.49
55.38
57.44
58.84
59.71
60.1
60.01
59.38
58.18
56.42
54.2
51.62
48.79
45.81
42.75
39.72
36.75
33.91
31.25
28.81
26.61
24.52
22.35
19.81
16.75
13.2
9.46
5.84
2.49
-0.83
-4.68
-9.81
-16.73
-25.63
-36.29
-48.13
-60.44
-72.3
-82.61
-90.04
-93.28
-91.42
-84.27
-72.6
-58.02
-42.58
-28.25
-16.4
-7.43
-0.74
4.84
10.49
16.84
23.67
30.13
35.17
38.16
39.21
39.01
38.48
38.31
38.68
39.37
40.04
40.49
40.73
40.84
40.83
40.45
39.36
37.25
34.05
30.03
25.74
21.71
18.3
15.45
12.8
9.8
6.07
1.55
-3.41
-8.3
-12.61
-16.16
-19.1
-21.94
-25.35
-29.97
-36.2
-43.95
-52.55
-60.65
-66.52
-68.48
-65.39
-57.13
-44.64
-29.63
-14.05
0.44
12.76
22.45
29.52
34.22
36.88
37.83
37.47
36.21
34.6
33.12
32.25
32.27
33.18
34.75
36.57
38.22
39.45
40.17
40.38
40.02
38.94
36.9
33.81
29.82
25.36
20.99
17.11
13.81
10.78
7.5
3.44
-1.66
-7.67
-14.11
-20.37
-25.91
-30.55
-34.51
-38.41
-42.98
-48.86
-56.29
-65
-74.12
-82.25
-87.72
-88.94
-84.93
-75.65
-62.13
-46.22
-29.98
-15.04
-2.24
8.46
17.6
25.79
33.31
40.13
45.94
50.53
53.89
56.21
57.83
59.01
59.87
60.35
60.32
59.71
58.65
57.36
56.14
55.14
54.29
53.26
51.67
49.24
45.99
42.2
38.29
34.62
31.35
28.38
25.47
22.33
18.79
14.88
10.73
6.57
2.54
-1.28
-4.99
-8.77
-12.83
-17.33
-22.27
-27.46
-32.6
-37.37
-41.6
-45.44
-49.36
-54.04
-60.19
-68.12
-77.48
-87.14
-95.33
-100.14
-100.05
-94.49
-83.96
-69.9
-54.18
-38.55
-24.22
-11.72
-1.06
8.08
16.09
23.23
29.64
35.28
40.04
43.85
46.65
48.49
49.46
49.68
49.29
48.48
47.56
46.88
46.74
47.17
47.94
48.59
48.57
47.52
45.39
42.44
39.09
35.74
32.62
29.7
26.8
23.67
20.14
16.27
12.3
8.52
5.18
2.28
-0.41
-3.29
-6.73
-10.86
-15.52
-20.37
-24.99
-29.15
-32.83
-36.29
-39.96
-44.36
-49.96
-56.92
-64.91
-72.98
-79.64
-83.21
-82.42
-76.83
-67.03
-54.45
-40.9
-27.95
-16.56
-7.02
0.9
7.61
13.47
18.69
23.28
27.15
30.21
32.46
34.01
35.07
35.87
36.57
37.22
37.76
38.14
38.38
38.55
38.74
38.93
38.94
38.54
37.54
35.89
33.78
31.47
29.21
27.04
24.81
22.24
19.14
15.54
11.69
7.93
4.56
1.57
-1.27
-4.34
-7.93
-12.14
-16.76
-21.45
-25.87
-29.8
-33.23
-36.38
-39.63
-43.48
-48.41
-54.56
-61.55
-68.33
-73.35
-75.05
-72.37
-65.17
-54.39
-41.62
-28.66
-16.92
-7.2
0.39
6.12
10.5
13.98
16.95
19.64
22.19
24.65
26.98
29.11
30.97
32.52
33.7
34.5
34.92
35.02
34.91
34.75
34.65
34.61
34.45
33.9
32.77
30.96
28.63
26.08
23.65
21.57
19.9
18.51
17.2
15.77
14.12
12.3
10.43
8.62
6.91
5.21
3.37
1.29
-1.03
-3.53
-6.12
-8.81
-11.7
-14.88
-18.38
-22.08
-25.77
-29.27
-32.48
-35.42
-38.16
-40.82
-43.48
-46.37
-49.81
-54.16
-59.55
-65.6
-71.28
-75.11
-75.61
-71.86
-63.87
-52.7
-40.03
-27.62
-16.77
-8.01
-1.18
4.26
8.82
12.79
16.19
18.97
21.11
22.71
23.94
24.97
25.83
26.5
26.97
27.32
27.75
28.43
29.44
30.64
31.74
32.37
32.28
31.41
29.91
28.09
26.23
24.53
23.02
21.63
20.27
18.87
17.47
16.11
14.77
13.4
11.92
10.21
8.29
6.2
4.04
1.88
-0.28
-2.46
-4.7
-7.08
-9.63
-12.4
-15.36
-18.4
-21.36
-24.06
-26.36
-28.3
-30.01
-31.8
-34
-36.96
-40.91
-45.88
-51.6
-57.37
-62.12
-64.63
-63.85
-59.27
-51.11
-40.35
-28.34
-16.51
-6.02
2.48
8.8
13.1
15.78
17.31
18.15
18.7
19.26
19.97
20.91
22.05
23.29
24.53
25.61
26.45
27.06
27.56
28.13
28.87
29.78
30.62
31.07
30.83
29.76
27.93
25.67
23.3
21.1
19.18
17.52
16.04
14.67
13.42
12.31
11.31
10.31
9.08
7.41
5.18
2.48
-0.45
-3.31
-5.91
-8.25
-10.55
-13.06
-16.01
-19.41
-23.09
-26.81
-30.33
-33.55
-36.46
-39.19
-41.95
-45.02
-48.75
-53.45
-59.2
-65.63
-71.81
-76.36
-77.83
-75.23
-68.37
-58.04
-45.68
-32.94
-21.17
-11.18
-3.23
2.79
7.16
10.24
12.43
14.17
15.87
17.83
20.09
22.54
24.92
27.04
28.8
30.24
31.39
32.31
33
33.48
33.84
34.17
34.48
34.69
34.61
34.05
32.86
31.1
28.92
26.57
24.26
22.12
20.16
18.29
16.42
14.47
12.42
10.28
8.09
5.85
3.61
1.43
-0.65
-2.57
-4.4
-6.32
-8.55
-11.35
-14.77
-18.68
-22.75
-26.58
-29.82
-32.37
-34.4
-36.39
-38.89
-42.44
-47.22
-52.82
-58.29
-62.35
-63.83
-62.05
-57.04
-49.49
-40.38
-30.75
-21.41
-12.95
-5.73
0.01
4.2
6.93
8.49
9.29
9.76
10.28
11.11
12.39
14.21
16.57
19.4
22.58
25.91
29.19
32.24
34.86
36.96
38.47
39.3
39.44
38.85
37.53
35.56
33.07
30.25
27.28
24.32
21.45
18.69
15.96
13.19
10.28
7.21
4.03
0.84
-2.23
-5.15
-8
-11.04
-14.53
-18.65
-23.37
-28.43
-33.45
-38.08
-42.21
-45.98
-49.85
-54.35
-59.95
-66.91
-75.03
-83.61
-91.46
-97.11
-99.11
-96.4
-88.7
-76.58
-61.36
-44.82
-28.72
-14.44
-2.77
6.16
12.74
17.62
21.52
24.99
28.35
31.7
34.99
38.12
40.94
43.33
45.26
46.74
47.9
48.95
50.06
51.37
52.85
54.34
55.62
56.4
56.44
55.51
53.55
50.73
47.5
44.43
41.96
40.16
38.75
37.23
35.29
32.93
30.47
28.22
26.21
24.05
21.17
17.14
11.95
6
-0.1
-5.87
-11.12
-15.99
-20.76
-25.71
-31.02
-36.73
-42.86
-49.54
-56.95
-65.35
-74.78
-84.82
-94.45
-102.15
-106.21
-105.3
-98.93
-87.66
-72.91
-56.58
-40.5
-26.02
-13.87
-4.12
3.59
9.82
15.08
19.66
23.65
27.08
29.99
32.65
35.4
38.57
42.23
46.18
49.99
53.21
55.58
57.1
57.93
58.32
58.38
58.08
57.19
55.49
52.82
49.23
44.9
40.15
35.32
30.62
26.17
21.94
17.86
13.8
9.6
5.16
0.4
-4.63
-9.75
-14.78
-19.63
-24.46
-29.63
-35.62
-42.85
-51.51
-61.44
-72.08
-82.43
-91.1
-96.45
-96.95
-91.67
-80.66
-65.11
-47
-28.51
-11.45
3.16
15.07
24.49
31.77
37.16
40.86
43.05
44.06
44.33
44.36
44.56
45.21
46.37
47.98
49.84
51.74
53.5
55.01
56.15
56.73
56.52
55.28
52.95
49.66
45.76
41.63
37.5
33.38
29.11
24.55
19.73
14.9
10.35
6.23
2.45
-1.33
-5.5
-10.32
-15.81
-21.77
-27.87
-33.82
-39.43
-44.69
-49.84
-55.35
-61.85
-69.89
-79.65
-90.53
-101.02
-108.96
-112.07
-108.71
-98.47
-82.36
-62.51
-41.44
-21.41
-3.93
10.41
21.72
30.47
37.24
42.56
46.81
50.3
53.19
55.59
57.58
59.28
60.86
62.48
64.21
65.94
67.44
68.46
68.82
68.53
67.64
66.19
64.13
61.31
57.66
53.29
48.54
43.85
39.55
35.7
32.11
28.45
24.45
20.05
15.41
10.79
6.4
2.24
-1.91
-6.33
-11.28
-16.77
-22.56
-28.3
-33.72
-38.78
-43.82
-49.42
-56.17
-64.46
-74.11
-84.36
-93.73
-100.33
-102.26
-98.15
-87.65
-71.68
-52.21
-31.73
-12.54
3.85
16.84
26.58
33.64
38.56
41.8
43.74
44.73
45.23
45.71
46.56
47.93
49.75
51.79
53.82
55.72
57.47
59.08
60.46
61.35
61.44
60.44
58.28
55.08
51.21
46.97
42.64
38.32
34.01
29.68
25.34
20.98
16.6
12.25
7.96
3.79
-0.25
-4.2
-8.23
-12.54
-17.31
-22.57
-28.14
-33.7
-38.93
-43.65
-47.95
-52.26
-57.27
-63.75
-72.15
-82.26
-92.94
-102.22
-107.75
-107.49
-100.44
-87.01
-68.93
-48.69
-28.8
-11.13
3.42
14.87
23.78
30.92
36.95
42.22
46.83
50.74
53.92
56.41
58.36
59.93
61.21
62.23
62.93
63.26
63.27
63.06
62.75
62.37
61.81
60.82
59.14
56.57
53.14
49.07
44.72
40.45
36.5
32.92
29.6
26.33
22.94
19.33
15.47
11.5
7.63
4.04
0.84
-2.04
-4.86
-7.99
-11.77
-16.37
-21.71
-27.47
-33.23
-38.64
-43.51
-47.87
-52.02
-56.39
-61.49
-67.81
-75.56
-84.45
-93.52
-101.16
-105.49
-104.81
-98.23
-85.99
-69.49
-50.85
-32.38
-15.91
-2.47
7.76
15.29
20.89
25.35
29.21
32.8
36.19
39.4
42.4
45.12
47.5
49.4
50.76
51.53
51.86
51.97
52.12
52.44
52.87
53.19
53.07
52.26
50.65
48.38
45.68
42.81
39.98
37.23
34.48
31.65
28.69
25.71
22.86
20.24
17.86
15.54
13.05
10.22
7
3.54
0.06
-3.25
-6.27
-9.09
-11.89
-14.97
-18.57
-22.82
-27.65
-32.82
-37.97
-42.77
-47.08
-51.03
-54.99
-59.53
-65.2
-72.28
-80.55
-89.1
-96.4
-100.59
-99.99
-93.71
-82
-66.22
-48.48
-30.98
-15.42
-2.73
7.01
14.2
19.51
23.54
26.77
29.59
32.23
34.82
37.37
39.8
41.95
43.66
44.83
45.46
45.7
45.79
45.98
46.44
47.1
47.7
47.82
47.09
45.33
42.68
39.51
36.29
33.37
30.88
28.68
26.53
24.21
21.64
18.85
15.95
13.05
10.21
7.44
4.69
1.9
-0.98
-4
-7.12
-10.32
-13.54
-16.78
-20.08
-23.5
-27.05
-30.62
-33.96
-36.75
-38.74
-39.91
-40.53
-41.12
-42.4
-45.02
-49.41
-55.55
-62.8
-69.84
-74.91
-76.22
-72.53
-63.65
-50.57
-35.2
-19.77
-6.09
4.83
12.86
18.44
22.19
24.55
25.78
26.06
25.68
25.05
24.64
24.83
25.68
27.05
28.64
30.2
31.55
32.72
33.77
34.76
35.66
36.31
36.48
35.93
34.53
32.33
29.55
26.51
23.52
20.75
18.2
15.82
13.53
11.37
9.37
7.58
5.9
4.19
2.35
0.37
-1.58
-3.38
-5.04
-6.74
-8.82
-11.56
-15.03
-19.03
-23.23
-27.28
-30.96
-34.28
-37.35
-40.41
-43.74
-47.69
-52.63
-58.79
-65.96
-73.35
-79.56
-82.89
-81.91
-75.96
-65.43
-51.67
-36.56
-21.93
-9.13
1.2
8.98
14.51
18.19
20.38
21.41
21.68
21.62
21.73
22.34
23.59
25.32
27.21
28.97
30.45
31.73
32.99
34.34
35.75
37
37.84
38.02
37.47
36.16
34.19
31.66
28.75
25.67
22.68
19.95
17.52
15.3
13.06
10.61
7.85
4.84
1.75
-1.23
-3.97
-6.5
-8.96
-11.59
-14.6
-18.13
-22.18
-26.58
-31.08
-35.44
-39.51
-43.34
-47.15
-51.35
-56.39
-62.62
-70.08
-78.26
-86.05
-91.87
-94.05
-91.35
-83.44
-71.01
-55.62
-39.19
-23.54
-9.93
1.03
9.31
15.23
19.29
22.03
23.94
25.47
26.92
28.48
30.2
32.02
33.83
35.54
37.1
38.48
39.72
40.9
42.08
43.26
44.37
45.22
45.62
45.34
44.22
42.23
39.45
36.14
32.64
29.31
26.38
23.89
21.65
19.36
16.78
13.84
10.7
7.63
4.86
2.43
0.12
-2.43
-5.54
-9.36
-13.8
-18.52
-23.13
-27.29
-30.86
-34
-37.16
-40.87
-45.67
-51.86
-59.33
-67.63
-75.97
-83.32
-88.62
-90.84
-89.13
-82.95
-72.19
-57.23
-39.02
-19.07
0.8
18.63
32.81
42.46
47.82
50.17
51.58
54.21
59.52
67.83
78.14
88.63
97.24
102.51
104.17
103.66
104.11
109.9
125.24
152.45
190.17
232.7
271.18
296.45
302.47
288.67
260.06
224.82
190.68
162.02
138.89
118.28
96.54
71.61
43.61
14.21
-14.87
-43.1
-71.39
-101.61
-135.82
-175.72
-222.08
-274.23
-329.41
-382.44
-426.21
-453.18
-457.74
-438.45
-399.13
-347.99
-295.03
-248.83
-213.91
-190.23
-174.27
-161.39
-147.88
-132.05
-113.89
-94.16
-73.56
-52.38
-30.97
-10.14
8.49
23.05
32.3
36.34
36.86
36.46
37.71
42.04
49.35
58.18
66.52
72.75
76.26
77.53
77.74
78.09
79.15
80.73
81.97
81.88
79.82
75.75
70.2
64.06
58.12
52.84
48.17
43.74
39.13
34.1
28.79
23.53
18.68
14.33
10.27
6.02
1.16
-4.49
-10.76
-17.18
-23.25
-28.71
-33.63
-38.51
-44.08
-51.05
-59.7
-69.56
-79.11
-85.9
-86.91
-79.3
-61.29
-32.85
4.06
45.76
87.69
125.35
155.27
175.6
186.21
188.47
184.66
177.3
168.61
160.07
152.31
145.38
138.97
132.9
127.36
123.01
120.71
121.32
125.27
132.47
142.2
153.15
163.49
171.16
174.2
171.28
162.15
147.64
129.32
108.92
87.76
66.67
46.11
26.46
8.01
-9.28
-26.23
-44.64
-67.03
-96.06
-133.87
-181.23
-236.88
-297.02
-355.25
-403.47
-433.53
-439.73
-420.95
-381.59
-330.67
-279.19
-236.9
-209.65
-198.28
-199.33
-206.81
-214.26
-216.44
-210.11
-194.21
-169.51
-138.15
-103.12
-67.73
-35.11
-7.67
13.4
28.34
38.53
45.94
52.54
59.57
67.37
75.43
82.82
88.76
92.93
95.64
97.6
99.64
102.26
105.48
108.79
111.4
112.51
111.65
108.82
104.46
99.24
93.76
88.35
83.01
77.51
71.57
65.05
58.1
51.04
44.22
37.85
31.84
25.84
19.42
12.28
4.43
-3.84
-12.08
-19.87
-27.05
-33.83
-40.74
-48.56
-58.1
-69.89
-83.77
-98.57
-112.14
-121.61
-124.23
-118.22
-103.48
-81.68
-55.81
-29.2
-4.57
16.49
33.61
47.22
57.99
66.53
73.22
78.35
82.28
85.43
88.21
90.86
93.38
95.58
97.26
98.34
98.94
99.34
99.77
100.34
100.89
101.04
100.32
98.3
94.82
90.06
84.53
78.82
73.41
68.4
63.61
58.61
53.1
47
40.59
34.28
28.44
23.2
18.35
13.46
7.98
1.53
-6.01
-14.4
-23.1
-31.52
-39.19
-45.99
-52.28
-58.82
-66.57
-76.37
-88.54
-102.53
-116.78
-128.78
-135.68
-135.09
-125.85
-108.55
-85.42
-59.62
-34.37
-12.04
6.24
20.51
31.55
40.35
47.7
54.07
59.61
64.34
68.26
71.47
74.11
76.33
78.21
79.75
80.91
81.7
82.2
82.55
82.86
83.08
82.97
82.17
80.33
77.25
72.99
67.79
61.96
55.79
49.43
42.91
36.28
29.63
23.15
17.01
11.29
5.88
0.53
-5.02
-10.92
-17.11
-23.35
-29.33
-34.91
-40.16
-45.45
-51.32
-58.36
-66.96
-77.12
-88.17
-98.73
-106.77
-110.12
-107.09
-97.11
-81
-60.82
-39.24
-18.75
-1.04
13.25
24.37
32.97
39.68
44.87
48.64
51.08
52.43
53.14
53.78
54.83
56.48
58.57
60.71
62.45
63.51
63.87
63.65
62.99
61.9
60.21
57.67
54.09
49.41
43.83
37.72
31.56
25.75
20.54
15.96
11.85
7.89
3.77
-0.76
-5.84
-11.47
-17.58
-24.06
-30.68
-37.19
-43.34
-49.06
-54.54
-60.3
-67.07
-75.54
-85.97
-97.8
-109.55
-119
-123.71
-121.81
-112.59
-96.89
-76.78
-54.99
-34.05
-15.63
-0.33
12.17
22.63
31.84
40.28
48.09
55.15
61.22
66.1
69.74
72.18
73.6
74.22
74.29
74.02
73.62
73.28
73.1
73.01
72.79
72.06
70.46
67.76
64.02
59.57
54.82
50.16
45.75
41.54
37.31
32.87
28.14
23.22
18.33
13.65
9.22
4.79
-0.01
-5.54
-11.88
-18.78
-25.67
-31.96
-37.34
-41.97
-46.52
-51.94
-59.1
-68.39
-79.44
-91
-101.16
-107.73
-108.98
-104.1
-93.59
-78.96
-62.21
-45.16
-28.99
-14.18
-0.81
11.06
21.19
29.19
34.88
38.53
40.87
42.94
45.68
49.57
54.52
59.96
64.97
68.62
70.16
69.4
67.01
64.89
65.95
73.27
88.68
111.34
137.01
159.02
170.42
166.67
147.43
116.61
80.65
45.9
16.54
-6.18
-23.19
-36.21
-46.63
-55.19
-62.29
-68.51
-74.75
-81.96
-90.6
-100.41
-110.56
-120.17
-128.77
-136.43
-143.5
-150.06
-155.53
-158.63
-157.79
-151.71
-139.94
-123.1
-102.77
-81.09
-60.2
-41.8
-26.86
-15.52
-7.25
-1.15
3.76
8.21
12.59
16.93
21.06
24.81
28.06
30.82
33.15
35.22
37.2
39.24
41.43
43.7
45.79
47.31
47.91
47.36
45.75
43.34
40.49
37.5
34.45
31.29
27.95
24.41
20.77
17.17
13.65
10.15
6.48
2.44
-2.08
-7.02
-12.15
-17.19
-21.91
-26.21
-30.2
-34.17
-38.56
-43.87
-50.51
-58.63
-67.9
-77.29
-85.19
-89.71
-89.25
-83.08
-71.71
-56.73
-40.31
-24.46
-10.51
1.03
10.31
17.77
23.85
28.85
33
36.45
39.39
41.92
44.07
45.81
47.05
47.78
48.01
47.86
47.44
46.92
46.42
45.98
45.56
45.03
44.19
42.84
40.85
38.14
34.76
30.84
26.59
22.28
18.19
14.51
11.28
8.36
5.48
2.34
-1.24
-5.32
-9.78
-14.42
-19.02
-23.43
-27.55
-31.39
-35.13
-39.1
-43.74
-49.47
-56.45
-64.31
-72.06
-78.17
-81
-79.28
-72.67
-61.85
-48.34
-34
-20.5
-8.86
0.57
8.01
13.91
18.73
22.81
26.28
29.21
31.63
33.56
35.05
36.14
36.81
37.05
36.81
36.13
35.19
34.25
33.57
33.24
33.13
32.85
31.99
30.25
27.59
24.25
20.62
17.04
13.73
10.64
7.6
4.33
0.65
-3.49
-7.93
-12.38
-16.54
-20.18
-23.27
-26.02
-28.81
-32.13
-36.37
-41.72
-47.98
-54.48
-60.17
-63.8
-64.21
-60.74
-53.41
-42.99
-30.83
-18.48
-7.24
2.06
9.25
14.57
18.46
21.31
23.32
24.53
25
24.86
24.43
24.08
24.15
24.81
25.98
27.46
28.94
30.14
30.92
31.23
31.1
30.61
29.83
28.78
27.43
25.67
23.39
20.51
17.11
13.39
9.65
6.2
3.21
0.66
-1.66
-4.04
-6.75
-9.96
-13.66
-17.75
-22.06
-26.37
-30.45
-34.15
-37.43
-40.46
-43.63
-47.46
-52.42
-58.59
-65.45
-71.81
-76.06
-76.66
-72.66
-64.11
-52.04
-38.15
-24.25
-11.79
-1.52
6.47
12.51
17.11
20.71
23.62
26.03
28.03
29.67
31.02
32.15
33.12
33.94
34.56
34.92
35
34.89
34.77
34.79
35
35.2
35.06
34.21
32.5
30.09
27.34
24.71
22.46
20.65
19.04
17.33
15.28
12.76
9.87
6.8
3.8
1.06
-1.36
-3.58
-5.84
-8.44
-11.56
-15.21
-19.19
-23.23
-27.09
-30.69
-34.15
-37.69
-41.65
-46.32
-51.86
-58.15
-64.66
-70.35
-73.88
-73.94
-69.73
-61.26
-49.46
-35.87
-22.17
-9.73
0.64
8.72
14.72
18.97
21.81
23.55
24.42
24.7
24.7
24.76
25.13
25.96
27.16
28.54
29.87
31.02
31.99
32.92
33.87
34.8
35.51
35.73
35.22
33.89
31.83
29.27
26.51
23.82
21.37
19.17
17.11
15
12.66
10
7.05
3.95
0.9
-1.9
-4.36
-6.5
-8.46
-10.47
-12.81
-15.69
-19.16
-23.1
-27.22
-31.21
-34.9
-38.24
-41.42
-44.72
-48.55
-53.34
-59.35
-66.52
-74.17
-81.02
-85.36
-85.59
-80.8
-71.15
-57.89
-42.92
-28.17
-15.07
-4.32
4.05
10.44
15.31
19.08
22.08
24.51
26.57
28.42
30.16
31.84
33.45
34.98
36.43
37.81
39.16
40.46
41.7
42.82
43.75
44.36
44.49
43.94
42.58
40.38
37.49
34.21
30.89
27.76
24.89
22.21
19.6
16.97
14.31
11.71
9.21
6.85
4.56
2.27
-0.13
-2.66
-5.32
-8.08
-10.93
-13.92
-17.13
-20.67
-24.55
-28.7
-32.9
-36.94
-40.67
-44.13
-47.63
-51.65
-56.68
-63.01
-70.49
-78.34
-85.2
-89.39
-89.38
-84.32
-74.33
-60.58
-44.86
-29.11
-14.83
-2.87
6.53
13.56
18.56
21.95
24.13
25.53
26.57
27.63
28.93
30.53
32.37
34.31
36.2
37.96
39.58
41.09
42.54
43.96
45.27
46.3
46.78
46.46
45.19
43.04
40.16
36.87
33.48
30.3
27.54
25.31
23.57
22.12
20.65
18.84
16.47
13.5
10.12
6.6
3.19
0.04
-2.9
-5.8
-8.9
-12.4
-16.4
-20.84
-25.58
-30.39
-35.05
-39.45
-43.6
-47.7
-52.11
-57.24
-63.42
-70.7
-78.62
-86.13
-91.72
-93.76
-90.98
-82.91
-70.1
-53.99
-36.51
-19.59
-4.67
7.47
16.7
23.37
28.03
31.2
33.34
34.76
35.74
36.51
37.29
38.24
39.39
40.67
41.99
43.28
44.58
45.98
47.52
49.09
50.42
51.19
51.09
50.02
48.1
45.53
42.6
39.5
36.37
33.23
30.07
26.86
23.58
20.26
16.93
13.67
10.5
7.45
4.47
1.56
-1.29
-4.03
-6.68
-9.31
-12.11
-15.35
-19.21
-23.76
-28.84
-34.15
-39.38
-44.24
-48.64
-52.68
-56.68
-61.21
-66.88
-74.08
-82.65
-91.58
-99.13
-103.15
-101.91
-94.6
-81.74
-64.99
-46.53
-28.45
-12.25
1.33
12.19
20.51
26.64
30.92
33.7
35.38
36.36
37.06
37.81
38.81
40.11
41.64
43.23
44.77
46.24
47.67
49.16
50.64
51.97
52.89
53.15
52.62
51.31
49.35
46.92
44.18
41.25
38.21
35.12
32.02
28.87
25.64
22.23
18.61
14.82
11.02
7.43
4.28
1.7
-0.41
-2.41
-4.8
-8.08
-12.53
-18.02
-24.1
-30.19
-35.78
-40.7
-45.12
-49.42
-54.11
-59.64
-66.35
-74.29
-83.08
-91.66
-98.43
-101.47
-99.22
-90.99
-77.32
-59.79
-40.55
-21.66
-4.67
9.56
20.72
28.89
34.37
37.64
39.26
39.88
40.1
40.35
40.9
41.85
43.15
44.74
46.53
48.42
50.35
52.28
54.17
55.94
57.43
58.4
58.56
57.68
55.65
52.52
48.53
44.06
39.49
35.16
31.26
27.82
24.72
21.75
18.73
15.49
12
8.33
4.67
1.19
-1.99
-4.84
-7.52
-10.28
-13.47
-17.34
-21.93
-27.06
-32.38
-37.44
-42.01
-46.12
-50.2
-54.88
-60.82
-68.42
-77.52
-87.23
-96.04
-102.03
-103.36
-98.88
-88.45
-73.08
-54.7
-35.59
-17.78
-2.67
9.16
17.87
23.98
28.19
31.13
33.26
34.93
36.43
37.96
39.68
41.66
43.84
46.02
47.96
49.53
50.75
51.84
53.03
54.41
55.75
56.55
56.21
54.32
50.92
46.44
41.6
37.03
33.06
29.6
26.26
22.62
18.51
14.06
9.68
5.82
2.71
0.27
-1.86
-4.19
-7.14
-10.95
-15.55
-20.7
-26.03
-31.17
-35.85
-40.01
-43.87
-47.92
-52.83
-59.24
-67.4
-76.84
-86.24
-93.58
-96.73
-94.04
-84.98
-70.37
-52.1
-32.57
-14
2.04
14.8
24.23
30.66
34.6
36.58
37.12
36.79
36.19
35.84
36.16
37.27
39.06
41.2
43.33
45.13
46.48
47.45
48.14
48.61
48.79
48.47
47.39
45.3
42.09
37.8
32.63
26.95
21.22
15.84
11.05
6.87
3.05
-0.78
-4.99
-9.76
-14.99
-20.4
-25.65
-30.47
-34.85
-38.96
-43.19
-48.03
-54.01
-61.52
-70.55
-80.47
-89.94
-97.05
-99.89
-97.08
-88.33
-74.51
-57.41
-39.19
-21.75
-6.38
6.34
16.43
24.2
30.09
34.5
37.8
40.31
42.32
44.05
45.7
47.32
48.85
50.09
50.89
51.13
50.95
50.59
50.38
50.44
50.63
50.51
49.48
47.07
43.14
37.94
32.05
26.13
20.64
15.72
11.17
6.56
1.51
-4.17
-10.36
-16.73
-22.83
-28.32
-33.03
-37.1
-40.98
-45.34
-50.95
-58.38
-67.76
-78.5
-89.15
-97.7
-101.98
-100.37
-92.35
-78.66
-61.15
-42.16
-23.9
-7.86
5.38
16.03
24.7
32.01
38.33
43.7
48.02
51.19
53.29
54.56
55.34
55.88
56.28
56.48
56.43
56.12
55.66
55.24
54.99
54.81
54.34
53.09
50.58
46.63
41.46
35.68
30.07
25.22
21.31
18.03
14.7
10.68
5.61
-0.39
-6.84
-13.13
-18.82
-23.83
-28.44
-33.18
-38.61
-45.23
-53.26
-62.58
-72.49
-81.67
-88.29
-90.48
-86.89
-77.25
-62.55
-44.72
-26.08
-8.63
6.39
18.57
28.11
35.45
41.04
45.19
48.14
50.1
51.35
52.21
52.97
53.84
54.92
56.15
57.35
58.33
58.94
59.16
59.03
58.57
57.74
56.38
54.31
51.43
47.78
43.55
38.94
34.16
29.28
24.36
19.43
14.58
9.94
5.54
1.32
-3
-7.69
-12.93
-18.68
-24.61
-30.34
-35.59
-40.3
-44.76
-49.46
-55.04
-62.07
-70.85
-81.1
-91.85
-101.35
-107.52
-108.4
-102.91
-91.3
-75.09
-56.63
-38.25
-21.66
-7.54
4.23
14.25
23.09
31.07
38.27
44.61
50.02
54.49
58.08
60.81
62.7
63.78
64.14
63.95
63.42
62.79
62.24
61.88
61.69
61.52
61.09
60.02
57.95
54.74
50.51
45.74
41.02
36.78
33.2
30.05
26.97
23.63
19.92
15.97
12.05
8.4
5.16
2.33
-0.29
-3.03
-6.3
-10.46
-15.62
-21.54
-27.64
-33.24
-37.84
-41.39
-44.33
-47.48
-51.72
-57.69
-65.55
-74.76
-84.12
-91.86
-96.09
-95.33
-89.01
-77.68
-62.91
-46.73
-31.1
-17.4
-6.2
2.55
9.36
14.84
19.54
23.82
27.84
31.63
35.12
38.26
40.99
43.28
45.06
46.31
47.06
47.47
47.8
48.26
48.9
49.48
49.58
48.85
47.11
44.53
41.47
38.36
35.48
32.97
30.79
28.87
27.06
25.25
23.36
21.34
19.26
17.19
15.18
13.17
11.03
8.57
5.72
2.62
-0.49
-3.39
-6
-8.49
-11.22
-14.51
-18.51
-23.12
-28.01
-32.78
-37.15
-41.01
-44.56
-48.2
-52.45
-57.82
-64.49
-72.15
-79.85
-86.05
-89.04
-87.4
-80.58
-69.13
-54.54
-38.86
-23.97
-11.2
-1.01
6.79
12.77
17.52
21.47
24.84
27.7
30.13
32.23
34.08
35.74
37.21
38.38
39.16
39.55
39.67
39.72
39.95
40.43
41.03
41.44
41.32
40.46
38.91
36.89
34.67
32.45
30.28
28.11
25.81
23.37
20.8
18.15
15.45
12.71
10
7.39
5.07
3.14
1.59
0.23
-1.26
-3.1
-5.38
-7.91
-10.41
-12.64
-14.58
-16.42
-18.42
-20.79
-23.51
-26.36
-29.06
-31.45
-33.49
-35.38
-37.38
-39.83
-43.06
-47.36
-52.95
-59.76
-67.26
-74.37
-79.57
-81.35
-78.65
-71.3
-60.08
-46.55
-32.55
-19.69
-9
-0.82
5.09
9.25
12.25
14.55
16.47
18.15
19.69
21.09
22.38
23.54
24.52
25.3
25.89
26.39
26.95
27.71
28.69
29.79
30.77
31.35
31.31
30.55
29.05
26.9
24.29
21.42
18.61
16.09
14.04
12.43
11.11
9.85
8.46
6.85
5.05
3.22
1.5
-0.03
-1.34
-2.55
-3.83
-5.4
-7.47
-10.11
-13.25
-16.69
-20.11
-23.25
-25.98
-28.37
-30.71
-33.4
-36.91
-41.58
-47.47
-54.14
-60.67
-65.71
-67.87
-66.11
-60.13
-50.48
-38.47
-25.66
-13.57
-3.17
5.1
11.31
15.76
18.77
20.64
21.55
21.71
21.35
20.77
20.34
20.39
21.17
22.73
24.89
27.3
29.54
31.27
32.39
32.99
33.29
33.41
33.33
32.81
31.61
29.59
26.88
23.81
20.76
17.96
15.44
13.04
10.58
8.02
5.44
3.02
0.91
-0.87
-2.49
-4.16
-6.13
-8.54
-11.44
-14.77
-18.47
-22.41
-26.46
-30.44
-34.18
-37.63
-40.89
-44.32
-48.38
-53.51
-59.88
-67.22
-74.76
-81.32
-85.56
-86.26
-82.73
-74.93
-63.67
-50.28
-36.39
-23.4
-12.29
-3.4
3.42
8.6
12.6
15.78
18.36
20.51
22.38
24.13
25.91
27.83
29.9
32.08
34.26
36.33
38.16
39.66
40.74
41.42
41.72
41.68
41.28
40.44
39.08
37.19
34.87
32.3
29.74
27.32
25.09
22.94
20.68
18.17
15.34
12.22
8.95
5.67
2.56
-0.28
-2.86
-5.31
-7.88
-10.87
-14.46
-18.62
-23.11
-27.54
-31.6
-35.18
-38.43
-41.73
-45.55
-50.34
-56.33
-63.45
-71.13
-78.34
-83.64
-85.56
-83.04
-75.9
-64.89
-51.58
-37.78
-25.09
-14.47
-6.26
-0.25
3.94
6.77
8.61
9.77
10.53
11.23
12.2
13.7
15.88
18.7
21.95
25.32
28.58
31.65
34.59
37.5
40.36
42.93
44.83
45.69
45.39
44.03
42
39.73
37.51
35.39
33.26
30.89
28.1
24.87
21.34
17.73
14.26
11.03
7.93
4.74
1.15
-3.04
-7.82
-12.97
-18.13
-22.95
-27.27
-31.18
-35.04
-39.38
-44.75
-51.54
-59.72
-68.71
-77.32
-83.94
-86.88
-84.92
-77.76
-66.08
-51.42
-35.67
-20.53
-7.16
3.97
12.92
19.97
25.41
29.43
32.16
33.81
34.74
35.42
36.31
37.68
39.54
41.67
43.73
45.48
46.85
47.96
48.97
49.97
50.86
51.38
51.21
50.04
47.77
44.53
40.71
36.79
33.2
30.1
27.36
24.62
21.52
17.9
13.93
9.97
6.43
3.5
1
-1.51
-4.59
-8.61
-13.65
-19.37
-25.22
-30.61
-35.21
-39.04
-42.51
-46.24
-50.9
-56.94
-64.43
-73.02
-81.85
-89.57
-94.65
-95.6
-91.43
-82
-68.14
-51.48
-34.01
-17.51
-3.2
8.44
17.48
24.32
29.42
33.11
35.66
37.27
38.23
38.87
39.55
40.56
41.99
43.78
45.75
47.64
49.33
50.78
52.06
53.21
54.19
54.79
54.72
53.73
51.79
49.07
45.87
42.45
38.89
35.06
30.75
25.88
20.62
15.33
10.44
6.16
2.35
-1.41
-5.6
-10.53
-16.13
-22.01
-27.62
-32.51
-36.51
-39.86
-43.07
-46.88
-51.95
-58.74
-67.19
-76.58
-85.48
-91.98
-94.14
-90.61
-81.07
-66.42
-48.58
-29.85
-12.36
2.5
14.22
23.08
29.78
35.13
39.75
43.94
47.77
51.1
53.78
55.67
56.78
57.21
57.09
56.59
55.9
55.19
54.66
54.45
54.62
55.09
55.62
55.88
55.46
54.06
51.57
48.1
43.99
39.67
35.56
31.94
28.87
26.19
23.62
20.85
17.63
13.92
9.85
5.64
1.52
-2.39
-6.14
-9.99
-14.22
-19.08
-24.66
-30.79
-37.14
-43.26
-48.77
-53.47
-57.52
-61.37
-65.72
-71.29
-78.54
-87.44
-97.19
-106.26
-112.67
-114.44
-110.2
-99.7
-83.92
-64.83
-44.85
-26.16
-10.22
2.47
12.25
19.94
26.47
32.54
38.51
44.41
50.08
55.35
60.07
64.17
67.57
70.18
71.87
72.65
72.68
72.37
72.3
73.02
74.84
77.68
81
83.91
85.47
84.97
82.18
77.42
71.36
64.78
58.3
52.21
46.58
41.42
36.83
33.02
30.11
28.01
26.31
24.39
21.61
17.6
12.37
6.29
-0.09
-6.2
-11.73
-16.69
-21.32
-25.94
-30.78
-35.69
-40.2
-43.62
-45.36
-45.23
-43.64
-41.54
-40.22
-40.99
-44.87
-52.36
-63.2
-76.31
-89.75
-101.05
-107.7
-107.9
-101.15
-88.38
-71.74
-53.78
-36.71
-21.83
-9.48
0.65
9.06
16.12
21.96
26.63
30.26
33.08
35.44
37.59
39.56
41.26
42.58
43.52
44.21
44.82
45.42
45.89
45.96
45.34
43.89
41.67
38.88
35.8
32.64
29.61
26.82
24.34
22.2
20.35
18.74
17.3
15.98
14.75
13.59
12.44
11.2
9.78
8.07
6.03
3.64
0.93
-1.99
-4.97
-7.87
-10.63
-13.31
-16.07
-19.06
-22.31
-25.67
-28.93
-31.97
-34.83
-37.77
-41.18
-45.45
-50.88
-57.55
-65.21
-73.1
-79.95
-84.24
-84.52
-80.05
-71.1
-58.93
-45.4
-32.34
-21.03
-12
-5.26
-0.49
2.57
4.2
4.67
4.38
3.87
3.7
4.31
5.94
8.58
12.01
15.94
20.01
23.95
27.59
30.82
33.59
35.8
37.29
37.86
37.37
35.85
33.52
30.8
28.13
25.85
24.09
22.75
21.6
20.39
18.93
17.19
15.24
13.19
11.19
9.29
7.49
5.64
3.54
0.98
-2.14
-5.79
-9.82
-14
-18.09
-21.98
-25.66
-29.31
-33.2
-37.7
-43.16
-49.73
-57.14
-64.64
-70.92
-74.49
-74.05
-68.95
-59.5
-46.85
-32.68
-18.69
-6.2
4.08
12
17.79
21.88
24.69
26.57
27.82
28.67
29.31
29.92
30.59
31.35
32.15
32.91
33.56
34.09
34.59
35.18
35.96
36.94
37.91
38.56
38.49
37.44
35.35
32.43
29.11
25.86
23.01
20.61
18.46
16.15
13.39
10.07
6.36
2.65
-0.63
-3.22
-5.13
-6.63
-8.17
-10.18
-12.92
-16.37
-20.32
-24.39
-28.22
-31.64
-34.71
-37.65
-40.83
-44.57
-49.2
-54.87
-61.49
-68.49
-74.78
-78.88
-79.28
-75
-66.02
-53.35
-38.78
-24.25
-11.32
-0.84
7.06
12.76
16.78
19.58
21.46
22.66
23.42
24.02
24.74
25.82
27.3
29.05
30.81
32.36
33.62
34.65
35.61
36.54
37.28
37.56
37.08
35.76
33.75
31.33
28.8
26.32
23.84
21.23
18.34
15.11
11.59
7.93
4.31
0.93
-2.09
-4.78
-7.29
-9.89
-12.86
-16.31
-20.16
-24.15
-28.01
-31.55
-34.86
-38.28
-42.31
-47.4
-53.78
-61.21
-68.86
-75.38
-79.17
-78.82
-73.59
-63.72
-50.43
-35.51
-20.81
-7.76
2.89
11.03
16.98
21.25
24.33
26.69
28.66
30.46
32.17
33.77
35.17
36.27
37.07
37.64
38.12
38.67
39.43
40.44
41.62
42.72
43.46
43.58
42.99
41.73
39.97
37.82
35.27
32.26
28.66
24.51
20.05
15.62
11.57
8.13
5.28
2.75
0.18
-2.8
-6.44
-10.72
-15.43
-20.24
-24.82
-29.03
-32.97
-36.87
-41.03
-45.75
-51.14
-57.1
-63.13
-68.34
-71.44
-71.1
-66.38
-57.15
-44.23
-29.26
-14.2
-0.73
10.12
18.11
23.6
27.22
29.59
31.23
32.49
33.61
34.74
36
37.43
38.99
40.56
41.96
43.01
43.6
43.7
43.42
42.91
42.34
41.74
40.98
39.85
38.09
35.61
32.51
29.05
25.56
22.32
19.43
16.79
14.24
11.51
8.4
4.71
0.34
-4.77
-10.56
-16.87
-23.44
-29.97
-36.17
-41.93
-47.27
-52.4
-57.7
-63.61
-70.47
-78.38
-86.94
-95.23
-101.84
-105.21
-104.13
-98.12
-87.62
-73.91
-58.7
-43.64
-29.93
-18.18
-8.47
-0.6
5.7
10.65
14.45
17.35
19.65
21.78
24.11
26.88
30.15
33.75
37.43
40.92
44.01
46.54
48.42
49.57
49.96
49.57
48.45
46.63
44.15
40.98
37.13
32.66
27.79
22.84
18.2
14.17
10.88
8.24
5.99
3.79
1.33
-1.56
-4.96
-8.78
-12.88
-17.12
-21.37
-25.61
-29.93
-34.5
-39.59
-45.55
-52.57
-60.48
-68.53
-75.36
-79.28
-78.83
-73.41
-63.52
-50.71
-36.98
-24.11
-13.2
-4.45
2.47
8.08
12.74
16.62
19.77
22.28
24.3
25.98
27.39
28.51
29.36
30.05
30.79
31.82
33.26
35.07
37.06
39.05
40.87
42.37
43.42
43.83
43.45
42.25
40.36
38.07
35.62
33.13
30.53
27.64
24.3
20.54
16.56
12.66
9.14
6.22
3.94
2.21
0.8
-0.65
-2.44
-4.81
-7.75
-11.07
-14.42
-17.44
-19.86
-21.6
-22.86
-24.07
-25.83
-28.79
-33.32
-39.34
-46.07
-52.13
-55.86
-55.81
-51.2
-42.25
-30.11
-16.51
-3.26
8.25
17.33
24.01
28.82
32.47
35.51
38.21
40.53
42.25
43.18
43.21
42.4
40.94
39.06
37.03
35.08
33.46
32.29
31.58
31.22
30.97
30.62
29.93
28.78
27.06
24.79
22.01
18.84
15.45
12.08
8.93
6.19
4
2.49
1.79
1.98
2.97
4.41
5.76
6.46
6.14
4.82
2.81
0.49
-1.89
-4.35
-7.06
-10.14
-13.5
-16.87
-19.87
-22.31
-24.19
-25.77
-27.38
-29.41
-32.23
-36.16
-41.33
-47.49
-53.78
-58.82
-61.04
-59.17
-52.75
-42.32
-29.32
-15.59
-2.86
7.69
15.57
20.91
24.18
25.91
26.52
26.38
25.83
25.3
25.21
25.85
27.27
29.21
31.27
33.06
34.48
35.69
36.95
38.47
40.2
41.86
43.06
43.49
43.01
41.7
39.75
37.38
34.78
32.11
29.52
27.12
25
23.22
21.75
20.49
19.24
17.76
15.84
13.4
10.51
7.39
4.29
1.38
-1.37
-4.1
-7.01
-10.23
-13.74
-17.37
-20.89
-24.1
-26.91
-29.4
-31.76
-34.3
-37.41
-41.39
-46.34
-51.98
-57.59
-62.1
-64.33
-63.35
-58.76
-50.83
-40.48
-29
-17.75
-7.86
0
5.65
9.3
11.39
12.41
12.79
12.84
12.8
12.84
13.09
13.65
14.56
15.78
17.27
18.96
20.79
22.66
24.4
25.8
26.65
26.82
26.32
25.26
23.79
22.07
20.21
18.33
16.53
14.89
13.43
12.05
10.61
8.97
7.07
5
2.92
0.99
-0.71
-2.27
-3.87
-5.73
-8.02
-10.79
-13.97
-17.38
-20.78
-23.95
-26.8
-29.39
-31.94
-34.8
-38.38
-42.93
-48.4
-54.34
-59.84
-63.76
-65.01
-62.91
-57.4
-49.07
-38.98
-28.32
-18.09
-8.99
-1.37
4.63
9.03
11.93
13.56
14.27
14.5
14.67
15.07
15.79
16.77
17.83
18.82
19.69
20.54
21.55
22.86
24.47
26.21
27.75
28.69
28.76
27.94
26.44
24.6
22.69
20.83
18.94
16.83
14.31
11.4
8.23
5.07
2.11
-0.59
-3.14
-5.73
-8.56
-11.72
-15.19
-18.83
-22.42
-25.77
-28.77
-31.43
-33.96
-36.77
-40.34
-45.09
-51.09
-57.81
-64.21
-68.84
-70.34
-67.86
-61.32
-51.45
-39.51
-26.93
-14.99
-4.57
3.84
10.16
14.56
17.37
19.01
19.87
20.31
20.58
20.88
21.27
21.81
22.46
23.16
23.86
24.53
25.21
25.95
26.77
27.61
28.35
28.75
28.62
27.86
26.51
24.72
22.69
20.6
18.48
16.27
13.87
11.27
8.59
5.99
3.63
1.51
-0.54
-2.76
-5.4
-8.58
-12.25
-16.23
-20.31
-24.27
-27.97
-31.4
-34.65
-37.98
-41.78
-46.44
-52.2
-58.84
-65.6
-71.23
-74.21
-73.3
-67.87
-58.22
-45.52
-31.44
-17.68
-5.53
4.35
11.91
17.44
21.36
24.04
25.74
26.69
27.11
27.27
27.45
27.9
28.73
29.93
31.34
32.8
34.17
35.39
36.51
37.55
38.46
39.07
39.13
38.42
36.87
34.61
31.93
29.16
26.51
23.97
21.38
18.54
15.35
11.89
8.35
4.95
1.78
-1.23
-4.26
-7.49
-11
-14.84
-18.93
-23.25
-27.72
-32.25
-36.71
-40.95
-44.98
-49.07
-53.72
-59.51
-66.7
-74.91
-82.97
-89.17
-91.7
-89.32
-81.72
-69.69
-54.74
-38.73
-23.32
-9.67
1.66
10.62
17.42
22.44
26.08
28.76
30.78
32.42
33.89
35.31
36.76
38.27
39.86
41.48
43.04
44.45
45.67
46.74
47.77
48.82
49.8
50.44
50.4
49.38
47.32
44.41
41.01
37.44
33.88
30.36
26.78
23.07
19.22
15.32
11.46
7.76
4.33
1.2
-1.66
-4.45
-7.43
-10.88
-14.97
-19.63
-24.57
-29.35
-33.62
-37.25
-40.45
-43.68
-47.63
-52.93
-59.9
-68.36
-77.36
-85.39
-90.57
-91.2
-86.27
-75.81
-60.94
-43.51
-25.59
-8.99
5.14
16.33
24.68
30.66
34.83
37.7
39.7
41.17
42.36
43.46
44.59
45.79
47.08
48.42
49.72
50.92
51.97
52.86
53.61
54.25
54.74
54.89
54.41
52.98
50.4
46.7
42.2
37.45
33
29.18
26.04
23.35
20.73
17.9
14.75
11.34
7.89
4.62
1.64
-1.03
-3.54
-6.13
-9.1
-12.69
-17.06
-22.16
-27.8
-33.62
-39.26
-44.44
-49.14
-53.63
-58.45
-64.29
-71.66
-80.61
-90.37
-99.45
-105.86
-107.72
-103.79
-93.92
-79.06
-61.03
-41.94
-23.76
-7.88
5.04
14.94
22.23
27.49
31.3
34.15
36.41
38.32
40.07
41.77
43.51
45.26
46.94
48.46
49.8
50.98
52.16
53.43
54.84
56.25
57.39
57.91
57.46
55.88
53.26
49.88
46.15
42.43
38.94
35.68
32.53
29.27
25.77
21.92
17.77
13.47
9.23
5.28
1.75
-1.45
-4.61
-8.13
-12.38
-17.47
-23.2
-29.18
-34.97
-40.3
-45.21
-49.94
-54.88
-60.5
-67.24
-75.34
-84.63
-94.33
-102.95
-108.45
-108.85
-102.86
-90.4
-72.72
-52.05
-30.91
-11.44
5.03
18.07
27.87
34.94
39.85
43.06
44.99
46.04
46.59
46.98
47.45
48.08
48.87
49.7
50.5
51.22
51.9
52.59
53.37
54.19
54.91
55.28
54.97
53.7
51.38
48.1
44.17
40.04
36.12
32.69
29.8
27.3
24.86
22.13
18.77
14.65
9.88
4.8
-0.13
-4.55
-8.3
-11.56
-14.7
-18.21
-22.46
-27.6
-33.46
-39.7
-45.85
-51.52
-56.53
-61
-65.39
-70.37
-76.65
-84.58
-93.82
-103.17
-110.68
-114.13
-111.67
-102.51
-87.19
-67.47
-45.76
-24.5
-5.52
10.17
22.32
31.24
37.47
41.6
44.22
45.85
46.95
47.87
48.87
50.03
51.35
52.77
54.17
55.48
56.61
57.57
58.38
59.13
59.81
60.33
60.44
59.75
57.97
54.98
50.97
46.36
41.69
37.36
33.52
30.07
26.75
23.29
19.58
15.71
11.9
8.4
5.4
2.91
0.7
-1.61
-4.47
-8.18
-12.79
-18.01
-23.36
-28.37
-32.81
-36.75
-40.61
-44.96
-50.42
-57.36
-65.77
-75.03
-83.9
-90.67
-93.53
-91.08
-82.85
-69.53
-52.75
-34.67
-17.35
-2.3
9.73
18.69
24.95
28.97
31.17
31.89
31.4
30.07
28.38
26.88
26.06
26.22
27.37
29.32
31.72
34.24
36.7
39.01
41.09
42.78
43.72
43.52
41.83
38.57
33.99
28.66
23.26
18.36
14.21
10.68
7.42
4.05
0.34
-3.68
-7.77
-11.65
-15.09
-18.02
-20.54
-22.86
-25.33
-28.39
-32.46
-37.79
-44.22
-51.04
-57.06
-60.86
-61.22
-57.6
-50.26
-40.16
-28.64
-17.03
-6.39
2.62
9.56
14.17
16.21
15.57
12.45
7.42
1.51
-4.06
-8.14
-10.01
-9.59
-7.36
-4.19
-0.89
1.96
4.15
5.7
6.69
7.03
6.47
4.71
1.51
-3.12
-8.93
-15.45
-22.16
-28.6
-34.5
-39.83
-44.82
-49.96
-55.83
-62.89
-71.19
-80.11
-88.25
-93.74
-94.66
-89.76
-78.79
-62.71
-43.31
-22.8
-3.17
14.23
28.8
40.64
50.24
58.1
64.55
69.62
73.24
75.47
76.68
77.42
78.26
79.5
81.04
82.5
83.52
83.94
83.91
83.71
83.47
83.1
82.22
80.38
77.22
72.57
66.57
59.5
51.86
44.15
36.85
30.19
24.11
18.26
12.2
5.58
-1.65
-9.2
-16.63
-23.51
-29.66
-35.21
-40.53
-46.14
-52.6
-60.39
-69.78
-80.68
-92.4
-103.56
-112.17
-116.18
-114.03
-105.23
-90.62
-72.1
-52.09
-32.73
-15.44
-0.71
11.7
22.4
31.96
40.74
48.87
56.3
62.91
68.54
73.01
76.18
77.96
78.41
77.85
76.75
75.62
74.88
74.69
74.93
75.31
75.43
74.91
73.49
71.07
67.73
63.78
59.65
55.78
52.46
49.7
47.29
44.84
41.97
38.51
34.54
30.33
26.21
22.45
19.08
16
12.96
9.71
6.11
2.12
-2.18
-6.65
-11.13
-15.51
-19.76
-23.94
-28.2
-32.72
-37.61
-42.86
-48.32
-53.75
-58.99
-63.99
-68.89
-74.04
-79.94
-87.04
-95.54
-105.05
-114.43
-121.84
-125.18
-122.69
-113.67
-98.8
-79.92
-59.49
-39.84
-22.51
-8.14
3.46
12.87
20.79
27.8
34.23
40.22
45.73
50.65
54.88
58.34
61.04
62.97
64.15
64.61
64.45
63.9
63.24
62.72
62.43
62.23
61.82
60.87
59.18
56.76
53.76
50.46
47.06
43.76
40.58
37.45
34.19
30.61
26.61
22.24
17.74
13.42
9.56
6.24
3.35
0.6
-2.39
-5.94
-10.23
-15.23
-20.76
-26.49
-32.09
-37.34
-42.21
-46.87
-51.71
-57.2
-63.71
-71.28
-79.37
-86.85
-92.03
-93.2
-89.14
-79.66
-65.75
-49.34
-32.63
-17.45
-4.81
5.18
13.01
19.31
24.58
29.11
33
36.36
39.26
41.81
44.02
45.78
46.96
47.44
47.27
46.63
45.83
45.16
44.8
44.73
44.77
44.63
44.03
42.77
40.87
38.45
35.75
32.98
30.32
27.84
25.57
23.5
21.57
19.74
17.9
15.95
13.81
11.46
8.97
6.45
4.01
1.68
-0.59
-2.97
-5.61
-8.63
-12.07
-15.86
-19.9
-24.06
-28.2
-32.19
-35.93
-39.44
-42.9
-46.69
-51.28
-56.99
-63.68
-70.59
-76.4
-79.57
-78.83
-73.67
-64.51
-52.58
-39.54
-26.93
-15.89
-6.95
-0.13
4.91
8.68
11.68
14.35
16.98
19.7
22.45
25.05
27.25
28.87
29.81
30.16
30.11
29.94
29.87
30.03
30.38
30.75
30.87
30.5
29.52
27.96
25.99
23.91
21.97
20.33
18.97
17.77
16.56
15.24
13.75
12.14
10.48
8.82
7.23
5.72
4.28
2.86
1.4
-0.19
-1.95
-3.86
-5.86
-7.88
-9.93
-12.06
-14.36
-16.88
-19.59
-22.39
-25.16
-27.83
-30.39
-32.96
-35.75
-39.02
-42.98
-47.65
-52.6
-57
-59.72
-59.69
-56.28
-49.61
-40.52
-30.27
-20.18
-11.26
-4.06
1.31
5.08
7.57
9.17
10.2
10.94
11.6
12.31
13.11
13.98
14.89
15.81
16.74
17.69
18.65
19.6
20.51
21.32
21.97
22.39
22.53
22.35
21.85
21.02
19.83
18.29
16.48
14.53
12.66
11.01
9.67
8.54
7.48
6.32
5.02
3.63
2.29
1.07
-0.05
-1.17
-2.41
-3.79
-5.32
-6.91
-8.52
-10.16
-11.87
-13.71
-15.72
-17.92
-20.24
-22.59
-24.85
-26.9
-28.72
-30.44
-32.29
-34.63
-37.7
-41.63
-46.24
-51.04
-55.22
-57.81
-57.89
-54.85
-48.69
-40.03
-30.02
-19.96
-11
-3.81
1.42
4.92
7.06
8.22
8.74
8.88
8.92
9.07
9.51
10.24
11.19
12.21
13.18
14.07
14.91
15.78
16.71
17.69
18.62
19.39
19.9
20.09
19.94
19.48
18.74
17.76
16.57
15.21
13.75
12.23
10.73
9.27
7.86
6.48
5.09
3.71
2.33
0.97
-0.35
-1.63
-2.89
-4.17
-5.55
-7.06
-8.78
-10.74
-12.98
-15.48
-18.17
-20.95
-23.61
-26.04
-28.19
-30.21
-32.44
-35.34
-39.26
-44.27
-49.97
-55.5
-59.72
-61.5
-60.04
-55.16
-47.28
-37.41
-26.8
-16.73
-8.16
-1.6
2.9
5.67
7.2
8.01
8.46
8.77
9.02
9.22
9.41
9.64
10.02
10.59
11.4
12.4
13.52
14.6
15.57
16.38
17.05
17.59
17.99
18.14
17.93
17.24
16.11
14.72
13.31
12.07
11.02
10
8.79
7.22
5.3
3.17
1.01
-1.03
-2.9
-4.62
-6.27
-7.94
-9.75
-11.85
-14.39
-17.42
-20.9
-24.7
-28.57
-32.3
-35.79
-39.09
-42.45
-46.23
-50.84
-56.46
-62.85
-69.26
-74.47
-77.16
-76.27
-71.35
-62.74
-51.41
-38.68
-25.88
-14.13
-4.16
3.67
9.38
13.3
15.93
17.78
19.25
20.55
21.71
22.73
23.67
24.69
26
27.75
29.93
32.35
34.74
36.89
38.67
40.12
41.26
42.06
42.44
42.23
41.33
39.72
37.52
34.93
32.17
29.39
26.6
23.73
20.66
17.39
14.01
10.74
7.82
5.27
2.93
0.45
-2.5
-6.08
-10.22
-14.64
-19.08
-23.37
-27.47
-31.46
-35.4
-39.42
-43.79
-48.85
-54.99
-62.28
-70.27
-77.84
-83.42
-85.44
-82.8
-75.3
-63.65
-49.3
-33.96
-19.28
-6.44
3.99
11.98
17.9
22.23
25.38
27.6
29.04
29.85
30.3
30.74
31.47
32.64
34.24
36.1
38.11
40.18
42.28
44.32
46.07
47.24
47.52
46.78
45.12
42.83
40.28
37.72
35.28
32.86
30.25
27.24
23.75
19.84
15.73
11.68
7.88
4.36
1.01
-2.35
-5.87
-9.64
-13.67
-17.88
-22.16
-26.4
-30.6
-34.91
-39.71
-45.52
-52.76
-61.37
-70.63
-79.1
-84.92
-86.42
-82.63
-73.6
-60.33
-44.43
-27.66
-11.55
2.81
14.74
23.97
30.53
34.73
37.1
38.26
38.81
39.2
39.68
40.36
41.31
42.55
44.1
45.98
48.08
50.25
52.28
53.93
54.98
55.28
54.72
53.3
51.09
48.2
44.76
40.88
36.64
32.08
27.29
22.38
17.5
12.79
8.3
4
-0.22
-4.52
-9.03
-13.81
-18.85
-24.08
-29.32
-34.46
-39.38
-44.11
-48.97
-54.44
-61.11
-69.3
-78.77
-88.45
-96.53
-100.89
-99.67
-91.97
-78.15
-59.84
-39.44
-19.44
-1.79
12.48
23.27
31.08
36.6
40.43
43.01
44.66
45.71
46.51
47.36
48.39
49.59
50.79
51.9
52.92
53.96
55.14
56.47
57.73
58.58
58.66
57.7
55.67
52.72
49.22
45.53
41.95
38.53
35.14
31.51
27.43
22.88
18.08
13.35
8.92
4.81
0.82
-3.38
-8.05
-13.29
-18.93
-24.7
-30.28
-35.5
-40.36
-45.07
-50.04
-55.78
-62.75
-71.02
-80.09
-88.68
-94.93
-96.84
-92.95
-82.81
-67.23
-48.01
-27.42
-7.63
9.8
24
34.77
42.32
47.07
49.56
50.37
50.11
49.31
48.44
47.81
47.55
47.72
48.27
49.17
50.4
51.9
53.55
55.09
56.17
56.4
55.53
53.49
50.43
46.69
42.62
38.51
34.5
30.6
26.69
22.64
18.37
13.89
9.37
4.99
0.9
-2.89
-6.55
-10.41
-14.75
-19.7
-25.17
-30.87
-36.47
-41.73
-46.61
-51.37
-56.42
-62.31
-69.51
-78.13
-87.66
-96.85
-103.81
-106.5
-103.25
-93.43
-77.68
-57.81
-36.27
-15.48
2.72
17.43
28.54
36.51
42.01
45.7
48.09
49.6
50.57
51.29
51.98
52.74
53.52
54.19
54.59
54.69
54.62
54.6
54.83
55.36
55.97
56.25
55.72
54.06
51.23
47.53
43.44
39.43
35.79
32.46
29.14
25.45
21.19
16.39
11.4
6.67
2.51
-1.03
-4.22
-7.49
-11.22
-15.56
-20.44
-25.6
-30.74
-35.69
-40.41
-45.04
-49.82
-55.12
-61.38
-68.98
-77.93
-87.59
-96.52
-102.67
-103.92
-98.77
-86.98
-69.65
-49.02
-27.69
-7.96
8.68
21.65
31.08
37.48
41.5
43.72
44.71
44.97
45.02
45.22
45.81
46.75
47.86
48.84
49.5
49.82
49.98
50.23
50.76
51.55
52.31
52.63
52.11
50.54
47.94
44.55
40.71
36.77
32.98
29.44
26.06
22.66
19.01
14.95
10.5
5.89
1.47
-2.49
-5.92
-9.1
-12.48
-16.53
-21.45
-27.09
-32.98
-38.56
-43.43
-47.55
-51.27
-55.2
-60.06
-66.35
-74.17
-83.01
-91.6
-98.14
-100.66
-97.6
-88.38
-73.64
-55.11
-35.14
-16.04
0.43
13.36
22.69
28.91
32.79
35.11
36.51
37.43
38.2
39.03
40.07
41.36
42.81
44.24
45.44
46.33
46.94
47.43
47.99
48.65
49.31
49.72
49.57
48.59
46.68
43.82
40.21
36.12
31.96
28.07
24.63
21.59
18.69
15.62
12.19
8.47
4.7
1.23
-1.75
-4.3
-6.68
-9.3
-12.55
-16.63
-21.52
-26.95
-32.54
-37.82
-42.52
-46.59
-50.25
-54.02
-58.53
-64.33
-71.63
-80.07
-88.58
-95.52
-98.97
-97.32
-89.75
-76.63
-59.45
-40.38
-21.68
-5.11
8.38
18.6
25.88
30.75
33.76
35.42
36.17
36.48
36.74
37.21
37.99
38.99
40.08
41.15
42.17
43.22
44.4
45.73
47.08
48.2
48.81
48.65
47.61
45.71
43.08
39.95
36.56
33.2
30.11
27.43
25.13
23
20.7
17.99
14.74
11.11
7.42
4.02
1.08
-1.46
-3.9
-6.61
-9.91
-13.9
-18.48
-23.39
-28.33
-33.04
-37.39
-41.37
-45.14
-48.98
-53.35
-58.72
-65.42
-73.33
-81.64
-88.86
-93.09
-92.59
-86.36
-74.55
-58.51
-40.38
-22.45
-6.59
6.15
15.55
22
26.15
28.67
30.07
30.78
31.11
31.35
31.76
32.53
33.71
35.24
36.95
38.62
40.1
41.34
42.36
43.19
43.81
44.13
43.95
43.1
41.45
39.01
35.91
32.39
28.76
25.24
21.98
18.97
16.11
13.27
10.32
7.24
4.06
0.92
-2.05
-4.74
-7.14
-9.4
-11.78
-14.62
-18.18
-22.5
-27.35
-32.29
-36.86
-40.77
-44.01
-46.89
-49.86
-53.44
-58.06
-63.91
-70.79
-77.93
-83.98
-87.18
-85.87
-79.08
-66.94
-50.79
-32.73
-15.02
0.58
13.11
22.41
28.77
32.69
34.7
35.31
35.09
34.59
34.27
34.39
35.01
35.97
37.08
38.19
39.27
40.36
41.53
42.84
44.24
45.57
46.51
46.71
45.83
43.76
40.67
36.98
33.24
29.85
26.97
24.45
21.97
19.21
16.04
12.46
8.66
4.86
1.27
-1.98
-4.91
-7.62
-10.4
-13.53
-17.23
-21.53
-26.23
-31.03
-35.61
-39.85
-43.85
-47.93
-52.53
-58.07
-64.64
-71.86
-78.76
-83.89
-85.67
-82.92
-75.26
-63.3
-48.48
-32.61
-17.37
-3.99
6.88
15.04
20.59
23.87
25.31
25.46
24.86
24.01
23.34
23.14
23.6
24.78
26.52
28.57
30.55
32.2
33.43
34.29
34.94
35.42
35.54
34.99
33.4
30.64
26.85
22.4
17.78
13.39
9.42
5.83
2.43
-1.07
-4.89
-9.17
-13.85
-18.75
-23.58
-28.1
-32.19
-35.9
-39.45
-43.25
-47.79
-53.53
-60.74
-69.2
-78.1
-86
-91.07
-91.63
-86.71
-76.41
-61.92
-45.19
-28.31
-13
-0.31
9.47
16.54
21.39
24.51
26.41
27.53
28.27
28.99
29.91
31.1
32.43
33.69
34.71
35.42
35.95
36.48
37.2
38.13
39.05
39.57
39.2
37.59
34.64
30.58
25.92
21.26
17.09
13.6
10.61
7.65
4.2
-0.06
-5.15
-10.72
-16.25
-21.25
-25.51
-29.18
-32.74
-36.9
-42.34
-49.42
-58.03
-67.38
-76.07
-82.34
-84.52
-81.52
-73.18
-60.39
-44.81
-28.38
-12.87
0.57
11.47
19.91
26.31
31.2
34.99
37.99
40.4
42.33
43.9
45.22
46.39
47.46
48.42
49.24
49.85
50.25
50.46
50.52
50.46
50.18
49.55
48.35
46.46
43.86
40.67
37.11
33.33
29.39
25.18
20.53
15.32
9.58
3.6
-2.23
-7.54
-12.18
-16.28
-20.24
-24.65
-30.05
-36.79
-44.72
-53.06
-60.36
-64.7
-64.29
-57.92
-45.59
-28.53
-8.89
10.9
28.87
43.96
56.15
66.11
74.73
82.6
89.87
96.26
101.37
105.03
107.37
108.72
109.36
109.34
108.47
106.6
103.81
100.51
97.22
94.22
91.28
87.69
82.59
75.46
66.42
56.28
46.21
37.32
30.23
24.81
20.3
15.6
9.71
2.13
-7
-17.09
-27.42
-37.4
-46.82
-55.67
-64.09
-72.24
-80.39
-88.97
-98.57
-109.65
-122.22
-135.43
-147.58
-156.48
-160.07
-157.11
-147.6
-132.84
-114.99
-96.39
-78.89
-63.43
-49.99
-37.95
-26.67
-15.87
-5.75
3.19
10.53
16.1
20.16
23.14
25.52
27.58
29.46
31.21
32.85
34.42
35.91
37.2
38.08
38.34
37.89
36.8
35.29
33.58
31.83
30.11
28.41
26.65
24.78
22.73
20.4
17.69
14.58
11.08
7.29
3.29
-0.89
-5.28
-9.88
-14.58
-19.19
-23.53
-27.5
-31.25
-35.02
-39.15
-43.97
-49.75
-56.57
-64.2
-71.94
-78.57
-82.55
-82.43
-77.36
-67.46
-53.86
-38.33
-22.78
-8.73
2.99
12.25
19.41
25.02
29.65
33.77
37.68
41.57
45.46
49.18
52.35
54.54
55.38
54.76
52.85
50.07
46.91
43.74
40.74
37.87
35
31.98
28.77
25.38
21.89
18.41
15.07
12.06
9.53
7.6
6.27
5.44
4.86
4.33
3.67
2.82
1.8
0.73
-0.3
-1.23
-2.08
-2.97
-4.1
-5.72
-8.1
-11.39
-15.5
-20.1
-24.71
-28.84
-32.19
-34.83
-37.19
-39.97
-43.94
-49.7
-57.36
-66.36
-75.44
-82.9
-87.05
-86.76
-81.86
-73.22
-62.38
-51.07
-40.7
-32.08
-25.37
-20.34
-16.58
-13.68
-11.33
-9.41
-7.89
-6.87
-6.48
-6.8
-7.67
-8.63
-8.95
-7.9
-5.04
-0.34
5.9
13.29
21.53
30.34
39.34
47.92
55.33
60.98
64.79
67.24
69.14
71.12
73.26
75.02
75.52
74.06
70.39
64.73
57.52
49.19
40.16
30.88
21.9
13.8
6.99
1.57
-2.7
-6.3
-9.73
-13.28
-16.98
-20.68
-24.18
-27.46
-30.76
-34.6
-39.53
-45.87
-53.45
-61.47
-68.6
-73.34
-74.41
-71.25
-64.18
-54.29
-43.13
-32.19
-22.49
-14.46
-7.93
-2.47
2.38
6.88
11.08
14.91
18.27
21.18
23.69
25.85
27.68
29.1
30.07
30.63
30.89
31.04
31.26
31.65
32.17
32.66
32.9
32.69
31.93
30.67
29.06
27.32
25.62
23.99
22.43
20.83
19.11
17.21
15.16
12.95
10.62
8.17
5.62
3.09
0.68
-1.5
-3.37
-4.93
-6.27
-7.53
-8.92
-10.62
-12.71
-15.11
-17.59
-19.86
-21.69
-23.1
-24.46
-26.4
-29.63
-34.55
-41.01
-48.17
-54.62
-58.85
-59.63
-56.44
-49.58
-40.09
-29.39
-18.79
-9.28
-1.33
4.96
9.78
13.37
15.99
17.91
19.42
20.82
22.33
24.01
25.7
27.11
27.93
27.98
27.3
26.17
24.98
24.09
23.71
23.78
24.09
24.29
24.02
23.08
21.36
18.96
16.06
12.94
9.76
6.68
3.68
0.72
-2.14
-4.71
-6.63
-7.51
-7.15
-5.71
-3.75
-2.09
-1.43
-2.08
-3.85
-6.06
-7.92
-8.81
-8.51
-7.29
-5.74
-4.54
-4.3
-5.39
-7.86
-11.59
-16.34
-21.94
-28.33
-35.51
-43.34
-51.36
-58.73
-64.27
-66.72
-65.16
-59.17
-49.21
-36.52
-22.9
-10.3
-0.21
6.73
10.86
13.18
14.93
17
19.67
22.65
25.36
27.28
28.23
28.38
28.2
28.34
29.38
31.65
35.06
38.97
42.42
44.44
44.48
42.68
39.74
36.53
33.69
31.29
28.98
26.35
23.23
19.87
16.67
13.97
11.77
9.84
7.92
5.89
3.83
1.82
-0.18
-2.41
-5.09
-8.19
-11.36
-14.06
-15.92
-16.99
-17.74
-18.76
-20.48
-22.86
-25.41
-27.35
-27.9
-26.34
-22.23
-15.43
-6.22
4.59
15.74
25.79
33.56
38.56
41.17
42.36
43.18
44.25
45.57
46.71
47.25
47.01
46.08
44.63
42.6
39.87
36.53
33.28
31.37
32.04
35.62
41.06
46.14
48.72
48.02
45.2
42.76
42.94
46.22
50.96
54.54
55.01
52.54
49.28
47.96
50.06
54.75
59.01
59.08
52.05
36.93
14.87
-11.3
-38.02
-61.75
-79.82
-90.96
-95.62
-95.79
-94.32
-94.15
-97.42
-104.95
-116.28
-129.92
-143.8
-155.64
-163.42
-165.84
-162.72
-155.04
-144.55
-133.11
-122.1
-112.17
-103.39
-95.59
-88.56
-82.23
-76.25
-69.83
-61.77
-50.88
-36.52
-18.85
1.33
22.95
44.5
64.73
82.7
97.81
109.78
118.68
124.92
129.37
133.22
136.38
138.49
138.93
137.29
133.53
127.67
119.58
108.89
95.07
75.77
49.14
14.34
-27.42
-72.92
-117.93
-158.51
-192.01
-217.95
-240.24
-263.81
-293.08
-329.48
-370.63
-411.57
-446.85
-472.18
-470.51
-431.5
-353.69
-247.78
-131.8
-22.73
69.23
140.86
193.71
230.15
250.17
253.23
239.22
208.92
164.45
108.94
46.24
-18.18
-78.29
-129.15
-158.86
-161.47
-138.68
-99.48
-56.31
-22.67
-0.54
12.93
21.52
28.74
35.4
41.24
45.81
49.52
53.64
60.37
70.81
84.92
102.49
122.55
144.91
170.05
197.95
226.54
251.38
265.5
262.38
239.09
197.53
144.72
90.55
44.4
12.04
-5.39
-10.92
-8.9
-2.51
7.03
20.25
38.02
60.18
85.06
110.04
132.19
149.51
161.16
166.98
167.1
161.58
150.62
134.85
115.5
94.11
72.34
51.63
33.07
17.32
4.54
-5.73
-14.37
-22.39
-30.46
-38.56
-46.01
-51.84
-55.45
-56.97
-57.31
-57.74
-59.44
-63.08
-68.71
-75.87
-83.61
-90.72
-95.79
-97.45
-94.77
-87.56
-76.62
-63.51
-50.11
-38.04
-28.12
-20.35
-14.13
-8.71
-3.56
1.52
6.53
11.42
16.18
20.72
24.91
28.47
31.03
32.3
32.13
30.66
28.28
25.64
23.45
22.23
22.13
22.8
23.51
23.34
21.53
17.62
11.65
4.04
-4.45
-12.89
-20.4
-26.42
-30.98
-34.64
-38.29
-42.68
-47.97
-53.55
-58.25
-60.7
-59.84
-55.21
-46.97
-35.83
-22.83
-9.13
4.07
15.87
25.73
33.61
39.84
44.94
49.4
53.6
57.75
62.03
66.54
71.32
76.25
80.98
85.05
88.01
89.59
89.85
89.07
87.5
85.09
81.26
75.11
65.92
53.64
39.29
24.6
11.43
0.91
-6.88
-12.69
-17.43
-21.66
-25.44
-28.76
-31.9
-35.49
-40.02
-45.15
-49.53
-51.2
-48.51
-41.08
-29.93
-17.05
-4.42
6.82
16.49
25.11
33.18
40.8
47.55
52.83
56.11
57.23
56.45
54.37
51.79
49.46
47.88
47.11
46.75
46.17
44.9
42.85
40.4
38.08
36.06
33.88
30.45
24.48
15.07
2.16
-13.33
-29.83
-45.64
-59.46
-70.71
-79.57
-86.79
-93.28
-99.74
-106.32
-112.51
-117.27
-119.39
-117.95
-112.59
-103.69
-92.23
-79.54
-67.01
-55.85
-46.92
-40.7
-37.34
-36.76
-38.69
-42.71
-48.19
-54.28
-60.01
-64.54
-67.36
-68.5
-68.5
-68.14
-68.1
-68.64
-69.54
-70.28
-70.36
-69.59
-68.22
-66.74
-65.67
-65.24
-65.26
-65.31
-64.92
-63.87
-62.31
-60.74
-59.89
-60.44
-62.84
-67.02
-72.29
-77.34
-80.51
-80.32
-75.9
-67.33
-55.52
-41.81
-27.44
-13.25
0.29
12.96
24.47
34.54
42.95
49.7
54.95
58.73
60.78
60.59
57.7
52.15
44.65
36.4
28.63
22.07
16.9
13.03
10.79
11.25
15.89
25.67
39.97
56.3
70.98
80.72
84.21
82.87
80.08
79.56
83.69
92.67
104.87
118.01
130.08
139.75
146.07
148.06
144.88
136.46
124.25
111.28
101.41
97.86
101.95
112.61
126.92
141.33
152.84
159.59
160.87
156.7
147.48
133.85
116.79
97.62
77.89
59
41.98
27.35
15.34
5.96
-0.83
-5.38
-8.49
-11.45
-15.82
-22.86
-33.04
-45.88
-60.15
-74.35
-87.3
-98.47
-107.91
-115.98
-123.1
-129.66
-136
-142.54
-149.59
-157.13
-164.59
-170.87
-174.85
-175.87
-174.23
-171.14
-168.24
-167
-168.14
-171.37
-175.53
-178.82
-179.26
-175.12
-165.34
-149.9
-129.75
-106.46
-81.71
-56.71
-32.07
-7.87
15.99
39.5
62.41
84.27
104.62
123.01
139.11
152.63
163.52
172
178.6
184.06
189.07
193.96
198.64
202.6
205.23
206.2
205.6
203.93
201.84
199.8
197.81
195.57
192.68
189.07
185.07
181.2
177.65
173.95
168.96
161.39
150.62
137.12
122.41
108.3
95.8
84.47
72.38
56.89
35.77
7.95
-26.25
-65.4
-107.08
-147.91
-183.76
-210.64
-226.18
-231.14
-229.67
-227.76
-230.37
-238.66
-249.14
-255.22
-250.32
-230.93
-197.81
-154.93
-107.08
-57.84
-8.84
39.4
86.1
129.09
164.79
188.78
196.87
186.04
155.22
105.84
42.38
-27.71
-95.2
-151.36
-190.74
-213.03
-222.97
-228.05
-234.88
-246.11
-259.53
-270.05
-272.92
-266.36
-252.28
-234.68
-217.02
-200.49
-184.2
-166.89
-148.8
-132.31
-121.03
-117.73
-122.43
-132.1
-142.27
-149.64
-154.26
-159.62
-170.38
-189.18
-214.19
-239.02
-255.18
-255.78
-238.47
-206.03
-164.35
-119.51
-75.35
-32.85
8.97
51.45
95.3
140.66
187.57
236.24
286.48
337.12
385.51
428
461.11
482.89
493.52
494.99
490.04
481.13
469.98
457.66
445.05
432.69
420.33
406.32
387.82
361.91
327.22
284.91
238.35
191.78
148.8
111.57
80.91
57.15
40.58
31.18
27.98
28.57
29.45
27.17
19.62
6.67
-9.98
-27.77
-44.21
-57.47
-66.55
-71.16
-71.81
-69.68
-66.45
-63.73
-62.47
-62.55
-62.82
-61.65
-57.8
-51.04
-42.23
-32.88
-24.35
-17.27
-11.44
-6.36
-1.8
1.79
3.52
2.57
-1.27
-7.53
-15.32
-23.89
-32.92
-42.47
-52.76
-63.64
-74.55
-84.58
-92.87
-98.86
-102.38
-103.51
-102.48
-99.71
-95.94
-92.2
-89.75
-89.77
-92.9
-99.13
-107.75
-117.64
-127.87
-137.69
-146.28
-152.42
-154.4
-150.38
-139.21
-121.18
-98.24
-73.99
-51.79
-33.34
-17.94
-3.14
13.51
32.65
52.23
68.32
75.8
71.75
56.75
34.82
11.55
-8.59
-24.13
-36.94
-50.97
-72.49
-106.74
-156.49
-221.12
-296.1
-373.6
-443.21
-493.51
-514.94
-505.44
-470.17
-420.57
-370.68
-332.25
-311.67
-308.85
-318.5
-318.07
-290.04
-225.78
-129.64
-16.61
96.72
198.57
283.46
349.8
397.2
423.34
427.36
411.69
381.39
343.89
306.08
270.9
237.83
203.95
163.83
113.12
50.72
-21.12
-91.82
-149.7
-184.29
-189.76
-167.39
-126.32
-82.82
-45.93
-20.44
-5.85
1.15
4.66
7.17
8.58
7.34
2.58
-4.3
-11.11
-14.44
-13.81
-10.16
-5.81
-4.18
-6.69
-12.5
-18.73
-22.65
-21.12
-13.16
0.06
15.52
28.46
37.29
43.22
49.25
58.31
74.19
98.39
130.03
165.97
200.18
230.74
258.94
287.8
321.31
365.95
426.81
505.61
598.76
694.35
781.11
849.36
892.73
891.38
836.44
732.53
597.38
473.43
372.06
291.83
227.73
170.66
117.73
70.71
31.11
-1.57
-30
-60.59
-94.88
-131.24
-166.98
-199.39
-225.39
-243.74
-255.08
-261.48
-267.65
-274.69
-281.66
-287.56
-291.78
-293.96
-294.73
-295.43
-297.57
-303.96
-314.88
-329.52
-347.29
-367.98
-391.75
-419.62
-453.36
-494.91
-545.77
-603.67
-662.25
-712.14
-743.46
-749.22
-727.98
-684.36
-626.98
-565.31
-505.97
-451.75
-402.52
-357.18
-315.28
-277.29
-243.82
-214.72
-188.65
-163.74
-138.56
-112.86
-87.55
-64.39
-44.87
-29.58
-17.98
-8.7
-0.2
8.53
17.6
26.26
33.32
37.82
39.44
38.64
36.47
34.11
32.39
31.61
31.53
31.6
31.35
30.59
29.51
28.56
28.22
28.79
30.3
32.53
35.16
37.9
40.64
43.4
46.33
49.52
52.93
56.34
59.44
61.86
63.4
64.02
63.89
63.33
62.67
62.09
61.66
61.32
61.02
60.86
61.19
62.52
65.39
70.13
76.64
84.41
92.63
100.49
107.59
114.02
120.45
127.72
136.55
147.13
159.07
171.65
184.12
196.18
208.07
220.52
234.51
251
270.86
294.54
321.68
350.56
377.98
399.77
412.02
412.57
401.96
383.24
360.86
339.06
320.52
306.09
295.18
286.44
278.38
269.47
258.21
243.19
223.43
198.69
169.63
137.74
105.07
73.85
46.03
22.72
3.76
-12.29
-27.72
-44.62
-63.77
-84.03
-102.43
-115.31
-119.69
-114.53
-101.08
-82.33
-61.79
-42.26
-25.09
-10.16
3.37
16.19
28.22
38.51
45.79
49.19
48.8
45.76
41.83
38.78
37.77
39.12
42.38
46.64
50.84
53.91
54.83
52.58
46.29
35.44
20.26
1.89
-17.66
-35.99
-50.98
-61.49
-67.57
-70.33
-71.42
-72.48
-74.75
-78.92
-85.11
-92.82
-100.88
-107.45
-110.36
-107.64
-98.16
-82.06
-60.82
-36.8
-12.66
9.34
27.76
42.17
52.96
61.08
67.58
73.2
78.13
82.03
84.24
84.1
81.3
76
68.78
60.53
52.18
44.47
37.81
32.21
27.41
23.1
19.15
15.71
13.01
11.17
9.95
8.81
7.15
4.6
1.08
-3.37
-8.85
-15.72
-24.31
-34.55
-45.75
-56.69
-66.12
-73.24
-77.95
-80.71
-82.11
-82.35
-81.11
-77.61
-71.05
-60.95
-47.47
-31.42
-14.11
2.9
18.08
30.25
38.79
43.69
45.49
45.07
43.37
41.15
38.95
37.03
35.6
34.8
34.91
36.3
39.39
44.6
52.18
62.04
73.69
86.22
98.57
109.96
120.25
130.1
140.76
153.51
168.95
186.48
204.1
218.72
226.87
225.62
213.32
190.05
157.51
118.53
76.13
33.05
-8.75
-48.2
-84.88
-119.11
-152.22
-186.65
-225.32
-270.2
-320.63
-372.49
-418.85
-451.98
-466.04
-458.99
-432.95
-392.85
-344.34
-291.91
-238.31
-184.87
-132.28
-81.34
-33.19
10.64
48.38
78.43
100
113.8
122.42
129.87
140.03
155.13
174.57
194.88
211.1
218.73
215.39
201.33
178.85
151.26
121.78
93.12
66.99
43.65
21.64
-2.02
-30.6
-65.41
-103.89
-139.29
-162.79
-167.26
-150.82
-118.15
-78.84
-43.18
-17.98
-4.28
1.93
6.72
14.45
25.67
37.15
44.21
43.64
35.46
22.76
9.67
-1.22
-10.56
-22.05
-40.12
-66.88
-99.84
-132.09
-155.13
-162.67
-153.45
-131.61
-104.13
-76.91
-51.39
-23.89
12.07
61.6
124.69
194.93
261.45
313.09
342.59
348.69
335.3
308.71
274.65
236.63
196.05
153.73
111.27
71.57
38
12.98
-3.12
-12.08
-17.15
-21.64
-28
-37.15
-48.65
-61.2
-73.38
-84.17
-93.29
-101.15
-108.43
-115.68
-122.95
-129.78
-135.49
-139.58
-141.98
-143.12
-143.58
-143.71
-143.39
-142.25
-140.02
-137.02
-134.14
-132.46
-132.66
-134.6
-137.47
-140.29
-142.51
-144.3
-146.22
-148.68
-151.47
-153.77
-154.54
-153.01
-148.73
-141.38
-130.38
-114.83
-93.88
-67.37
-36.45
-3.49
28.56
57.03
80.32
98.05
110.63
118.76
123.04
124.18
123.46
122.99
125.28
132.29
144.27
159.11
172.6
179.43
174.8
156.02
123.95
83.55
42.96
11.32
-4.3
-1.23
18.14
47.76
80.54
110.62
134.78
152.08
162.8
167.44
166.62
161.41
153.57
145.04
136.88
128.96
120.25
109.97
98.54
87.71
79.85
77.09
80.76
91
107.54
129.76
156.47
185.38
212.76
234.16
245.78
245.97
234.69
214.22
188.02
159.45
130.73
102.58
74.69
46.6
18.37
-11.79
-45.17
-82.44
-122.91
-164.74
-205.7
-243.98
-278.49
-308.79
-338.89
-372.53
-412.29
-457.91
-506.57
-554.54
-598.79
-637.6
-670.4
-702.35
-737.98
-780.06
-827.37
-875.28
-918.14
-951.57
-973.41
-951.91
-866.35
-710.77
-501.34
-269.31
-46.46
146.13
300.3
417
501.87
554.49
580.02
583.04
569.67
547.7
524.81
506.64
495.89
493.77
495.72
497.13
493.73
484.29
470.6
455.67
442.24
431.37
422.88
413.44
400.29
380.34
352.62
318.16
278.73
237.72
197.47
159.53
123.79
90.35
57.27
23.43
-10.9
-44.24
-74.58
-100.41
-120.61
-134.81
-142.63
-147.34
-152.2
-159.41
-169.64
-182.24
-196.45
-211.56
-226.9
-241.86
-260.63
-287.76
-326.54
-377.88
-440.48
-512.38
-592.1
-678.96
-744.85
-768.1
-737.53
-657
-541.07
-406.47
-267.96
-137.83
-25.77
62.54
122.28
153.9
162.68
156.37
142.77
127.46
113.74
103.76
99.44
99.02
98.97
97.67
94.16
88.71
82.05
75.21
69.4
65.89
63.45
60.26
54.74
45.77
33.62
19.16
3.63
-11.43
-24.44
-34.99
-43
-48.11
-52.53
-56.93
-61.41
-65.8
-69.67
-72.54
-74.42
-75.57
-76.33
-77.21
-77.97
-78.38
-78.24
-77.42
-75.84
-73.4
-70.06
-65.78
-60.69
-54.47
-47.04
-38.49
-29.09
-19.25
-9.41
0.09
8.95
16.81
24.05
30.84
37.08
42.45
46.6
49.4
51.08
52.08
52.77
54.97
59.78
67.48
77.35
88.25
99.34
110.49
122.08
134.39
150.69
172.89
201.32
234.33
269.19
303.58
336.48
367.95
398.19
432.12
472.74
520.64
573.08
625.4
673.44
715.46
752.59
788.13
833.08
895.43
977.54
1072.76
1167.19
1245.32
1296.14
1316.65
1268.32
1133.12
913.06
634.02
334.4
49.02
-200.61
-406.06
-567.21
-688.39
-764.9
-803.67
-813.3
-804.4
-788.52
-775.69
-772.57
-782.62
-806.73
-838.36
-868.13
-886.04
-885.03
-862.78
-821.63
-767.51
-708.27
-651.43
-598.88
-550.35
-503.84
-458.5
-415.61
-377.53
-346.03
-321.3
-301.89
-283.98
-264.73
-242.79
-219.09
-196.2
-176.69
-161.82
-151.19
-143.2
-135.28
-125.65
-113.6
-99.83
-85.91
-73.36
-62.91
-54.24
-46.3
-37.86
-28.11
-16.96
-5.02
6.74
17.51
27.05
35.81
44.69
54.6
66
78.7
91.96
104.89
117.05
128.53
140
152.34
166.13
181.49
198.37
216.89
237.37
259.93
283.77
306.9
326.48
339.85
345.54
343.44
334.24
318.63
296.89
269.33
237.38
204
173.36
149.33
133.97
126.97
126.24
129.13
133.54
138.27
142.64
145.96
147.65
147.05
143.65
137.35
128.25
116.55
103.21
90.38
81.19
78.69
83.92
94.75
106.38
113.72
114.05
108.79
102.47
99.97
103.79
112.32
120.68
123.41
117.29
102.54
82.48
61.34
42.04
25.95
12.46
-0.45
-15.45
-35.36
-63.18
-99.8
-143.84
-191.33
-234.45
-264.78
-276.08
-266.35
-238.37
-199.44
-155.98
-112.6
-71.89
-32.3
8.14
49.82
91.51
131.45
166.73
198.65
230.6
266.16
311.4
370.29
442.15
521.04
597.09
656.93
693.44
705.74
676.14
597.44
472.85
315.74
145.37
-2.97
-123.67
-219.92
-296.85
-359.85
-414.4
-463.87
-512.22
-562.99
-617.19
-674.21
-725.89
-761.83
-774.56
-759.96
-720.19
-662.87
-597.64
-532.61
-474.52
-424.25
-380.38
-341.7
-306.13
-271.54
-236.07
-198.06
-156.65
-113.54
-70.07
-27.89
11.28
47.38
81.89
117.18
155.99
200.7
251.74
308.14
366.26
419.37
459.35
478.76
473.23
443.31
394.58
335.68
276.01
223.01
180.84
150.7
132.15
124.29
126.13
136.24
151.92
168.82
181.33
183.9
172.78
147.38
110.6
67.89
25.45
-11.83
-41.64
-64.39
-81.99
-96.22
-107.62
-115.26
-117.59
-113.94
-105.35
-94.21
-83.24
-74.16
-67.05
-61.02
-55.9
-53.38
-56.86
-69.56
-92.15
-121.29
-150.39
-172.18
-181.72
-178.03
-163.53
-142.03
-116.59
-88.8
-59.41
-29.65
-1.75
21.63
38.6
49.11
54.95
58.8
62.99
68.59
75.4
82.25
87.5
89.76
88.14
82.5
73.52
62.57
51.27
40.93
32.19
25
18.85
13.22
7.81
2.65
-2.13
-6.58
-11.06
-16.11
-22.13
-29.05
-36.16
-42.4
-46.79
-48.97
-49.45
-49.41
-50.08
-52.09
-55.11
-58.01
-59.35
-58.16
-54.29
-48.52
-42.07
-36.05
-31.11
-27.3
-24.32
-21.84
-19.73
-18.05
-16.98
-16.63
-16.91
-17.59
-18.31
-18.77
-18.75
-18.16
-17.07
-15.61
-13.92
-12.11
-10.26
-8.45
-6.82
-5.6
-5.05
-5.37
-6.58
-8.45
-10.5
-12.25
-13.33
-13.64
-13.35
-12.74
-12.11
-11.65
-11.42
-11.44
-11.76
-12.45
-13.61
-15.29
-17.4
-19.72
-21.94
-23.67
-24.56
-24.33
-22.81
-20.09
-16.49
-12.54
-8.8
-5.75
-3.58
-2.24
-1.52
-1.18
-0.97
-0.72
-0.27
0.56
1.9
3.83
6.27
8.98
11.64
13.99
15.9
17.44
18.8
20.1
21.41
22.68
23.87
24.98
26.05
27.04
27.67
27.43
25.67
21.96
16.4
9.79
3.47
-1.09
-2.9
-1.67
2.02
7.05
12.22
16.45
19.02
19.52
17.71
13.53
7.15
-0.88
-9.67
-18.15
-25.45
-31.14
-35.28
-38.15
-39.81
-40.01
-38.41
-35.11
-30.97
-27.52
-26.33
-28.18
-32.49
-37.53
-41.12
-41.65
-38.72
-33.2
-26.73
-20.96
-17.1
-15.67
-16.57
-19.29
-23.14
-27.45
-31.68
-35.49
-38.69
-41.14
-42.81
-43.82
-44.54
-45.62
-47.7
-51.2
-56.09
-62.04
-68.58
-75.34
-81.93
-87.71
-91.67
-92.56
-89.42
-82.1
-71.41
-58.64
-45.02
-31.18
-17.26
-3.37
10
21.98
31.81
39.51
46.06
53.04
61.74
72.46
84.37
96.07
106.52
115.59
124.03
132.96
143.15
154.52
166.22
176.9
185.12
189.54
189.04
182.93
171.1
154.25
133.72
111.12
87.6
63.48
38.2
10.66
-20.11
-54.32
-91
-128.03
-162.54
-191.7
-213.32
-226.33
-230.56
-226.32
-213.92
-193.52
-165.48
-131.04
-92.87
-54.94
-21.62
3.45
18.2
22.28
16.67
3.16
-15.82
-37.34
-58.16
-75.43
-87.43
-94
-96.38
-96.2
-94.59
-91.69
-87.1
-80.72
-73.15
-65.5
-58.58
-52.35
-46.14
-39.49
-32.82
-27.5
-25
-26.01
-29.98
-35.65
-42.07
-49.39
-58.85
-72.04
-89.87
-111.86
-135.9
-158.63
-176.02
-184.17
-180.24
-163.33
-134.89
-98.43
-58.47
-19.17
16.8
48.36
75.58
98.77
117.92
132.74
143.1
149.41
152.67
154.19
155.17
156.49
158.67
161.88
166.06
170.89
175.87
180.53
184.54
187.7
189.76
190.24
188.36
183.29
174.6
162.71
148.83
134.46
120.73
107.95
95.6
82.74
68.5
52.46
34.64
15.24
-5.83
-28.96
-54.47
-81.87
-109.25
-133.38
-150.86
-159.55
-159.75
-153.99
-145.61
-136.87
-127.87
-116.89
-102.02
-82.78
-60.8
-39.1
-20.49
-6.28
3.93
11.48
17.53
22.52
26.17
28.01
27.86
26.04
23.18
19.97
16.99
14.45
12.16
9.41
5.24
-1.18
-9.97
-20.32
-30.73
-39.67
-46.36
-51.13
-55.18
-59.78
-65.33
-70.98
-74.93
-75.23
-70.69
-61.1
-47.04
-29.36
-8.86
13.58
36.72
58.82
78.03
93.01
103.57
110.6
115.45
119.16
121.95
123.34
122.73
119.99
115.63
110.53
105.39
100.39
95.22
89.4
82.73
75.52
68.54
62.71
58.72
56.74
56.37
56.89
57.53
57.71
56.97
54.79
50.59
43.89
34.68
23.66
12.05
1.01
-8.93
-18.1
-27.36
-37.39
-48.07
-58.35
-66.56
-71.08
-70.84
-65.54
-55.59
-41.97
-26.1
-9.61
5.95
19.51
30.8
40.25
48.64
56.61
64.32
71.43
77.35
81.43
83.08
81.8
77.23
69.26
58.18
44.76
30.14
15.67
2.59
-8.12
-15.85
-20.4
-22.04
-21.48
-19.7
-17.6
-15.66
-13.72
-11.21
-7.6
-2.94
2.08
6.39
9.19
10.37
10.5
10.42
10.73
11.41
11.85
11.12
8.37
3.19
-4.38
-13.81
-24.34
-35.13
-45.55
-55.26
-64.08
-71.78
-77.72
-80.81
-79.83
-73.93
-63.11
-48.4
-31.47
-14.09
2.33
16.85
28.88
37.97
43.8
46.26
45.68
42.74
38.31
33.12
27.64
22.11
16.81
12.12
8.38
5.65
3.52
1.17
-2.24
-7.13
-13.2
-19.61
-25.35
-29.82
-33.06
-35.63
-38.25
-41.3
-44.58
-47.33
-48.64
-47.86
-44.88
-40.23
-34.81
-29.61
-25.38
-22.45
-20.92
-20.69
-21.68
-23.74
-26.56
-29.54
-31.81
-32.41
-30.66
-26.32
-19.64
-11.25
-1.97
7.34
15.91
23.21
29.18
34.33
39.79
46.93
56.8
69.41
83.32
95.83
103.77
104.59
97.24
82.58
62.95
41.4
20.78
3.08
-10.8
-20.84
-27.42
-30.9
-31.37
-28.88
-23.78
-17.12
-10.63
-6.3
-5.52
-8.41
-13.76
-19.67
-24.54
-27.89
-30.35
-32.97
-36.18
-39.25
-40.39
-37.63
-29.84
-17.38
-2.15
12.97
24.93
31.53
32.15
28.1
22.41
18.96
21.09
30.36
45.94
64.99
83.88
99.75
111.44
119.54
125.61
130.99
136.02
139.84
140.94
138.03
130.61
119.17
104.98
89.68
74.89
61.96
51.85
44.92
40.92
39.02
38.02
36.66
33.84
28.88
21.43
11.33
-1.57
-17.64
-37.41
-61.47
-89.93
-121.79
-154.34
-183.26
-203.58
-211.36
-205.43
-188.11
-164.58
-140.93
-121.79
-108.79
-100.5
-93.81
-86.02
-76.42
-66.61
-59.47
-57.44
-61.04
-68.39
-75.83
-79.23
-75.52
-63.7
-44.91
-21.8
2.5
25.46
45.63
62.66
76.78
88.02
95.68
98.35
94.61
83.82
66.72
45.31
22.11
-0.69
-21.77
-40.42
-55.71
-66.02
-69.3
-64.26
-51.59
-34.34
-16.84
-2.84
6.21
11.43
15.22
19.34
23.64
26.32
25.42
20.6
13.78
8.18
6.53
9.46
15.26
21.09
24.57
24.75
22.07
17.49
11.76
5.18
-2.02
-9.19
-15.27
-19.3
-21.11
-21.52
-22.04
-24.01
-27.85
-32.93
-38.03
-42.09
-44.92
-47.28
-50.55
-56.03
-64.25
-74.65
-85.75
-95.46
-101.81
-103.47
-99.9
-91.43
-79.14
-64.76
-50.3
-37.71
-28.31
-22.32
-18.87
-16.32
-13.03
-8.15
-1.79
5.19
11.76
17.25
21.42
24.39
26.42
27.9
29.32
31.43
34.89
39.76
45.33
50.1
52.38
51.06
46.12
38.62
30.21
22.35
15.8
10.57
6.25
2.39
-1.21
-4.55
-7.59
-10.26
-12.31
-13.07
-11.46
-6.49
1.97
12.74
23.58
32.21
37.56
40.4
43.11
48.42
58.05
71.89
88.19
104.48
118.7
129.81
137.63
142.32
143.82
141.87
136.28
127.28
115.72
102.87
89.96
77.8
66.64
56.23
46.06
35.67
24.67
12.93
0.67
-11.6
-23.24
-33.67
-42.61
-50.18
-56.8
-63.45
-70.93
-79.56
-89.05
-98.57
-107.14
-114.14
-119.41
-123.3
-127.17
-132.49
-140.49
-151.73
-165.68
-180.6
-193.63
-201.33
-200.54
-190.42
-172.66
-151.32
-131.78
-119.01
-116.11
-123.64
-139.76
-155.43
-162.06
-153.38
-127.72
-88.71
-43.16
2.2
42.66
76.04
102.07
120.44
130.99
133.69
128.89
117.3
100.13
78.18
51.42
19.45
-18.08
-59.65
-100.6
-134.01
-152.93
-153.17
-135.1
-103.21
-63.94
-22.43
16.16
48.63
73.42
89.62
96.55
94.01
83.06
66.36
47.36
28.89
12.49
-2.2
-16.73
-32.79
-50.74
-69.12
-84.98
-95.1
-97.4
-91.39
-78.52
-61.59
-43.71
-27.52
-14.6
-5.49
0.25
4.06
8.6
17.25
33.21
58.05
90.68
127.32
162.85
192.76
214.87
229.93
240.43
248.81
255.87
260.48
260.67
255.07
243.89
228.6
211
192.09
171.89
150
126.53
102.61
80.02
60.45
44.73
32.58
23.15
15.67
9.83
5.77
3.57
2.74
2.21
0.69
-2.86
-9.09
-18.3
-30.6
-45.84
-63.18
-80.83
-96.13
-106.29
-109.44
-105.52
-96.32
-84.71
-73.3
-63.47
-55.11
-47.19
-38.68
-29.15
-18.85
-8.3
2.09
12.21
22.05
31.41
39.85
46.73
51.57
54.45
56.09
57.65
60.26
64.41
69.59
74.36
77.11
76.91
74.18
70.59
68.18
68.05
69.68
71.19
70.52
66.65
60.08
51.97
42.61
30.4
12.07
-15.51
-53.2
-98.8
-147.97
-196.61
-242.65
-286.02
-326.67
-362.36
-388.12
-398.14
-389.12
-362.66
-325
-284.1
-246.04
-212.94
-183.56
-155.78
-128.9
-104.22
-83.46
-66.64
-51.17
-32.92
-8.55
22.32
56.71
89.7
116.8
135.9
147.68
154.61
159.26
162.88
164.93
163.83
158.05
147.15
132.25
115.83
101.07
90.89
87.11
89.73
96.82
105.03
110.71
111.22
105.78
95.53
82.78
70.08
59.42
52.15
49.2
51.45
59.6
73.89
93.68
117.36
142.76
167.54
189.51
206.96
218.94
225.54
227.94
227.96
226.97
224.87
219.48
207.16
184.44
149.98
105.55
55.47
5.07
-41.61
-83.14
-120.66
-156.89
-194.95
-237.57
-286.64
-342.66
-403.75
-465.05
-518.96
-557.08
-573.04
-564.9
-536.02
-493.44
-445.07
-396.83
-351.46
-309.09
-268.75
-229.85
-192.4
-156.47
-121.51
-86.28
-49.31
-9.92
31.62
74.54
118.13
162.2
206.8
251.37
294.2
332.27
361.85
379.51
383.09
372.27
348.52
314.58
273.68
229.03
183.44
139.23
98.26
61.68
29.76
1.96
-22.59
-44.3
-62.41
-74.96
-79.71
-75.45
-63.39
-47.14
-31.09
-18.13
-7.94
2.88
18.78
42.3
72.04
102.98
128.8
145.01
151.02
149.8
145.78
142.17
139.46
135.81
128.9
117.82
103.93
90.21
79.66
73.75
71.78
71.58
70.62
67.22
61.29
54.13
47.69
43.59
42.26
42.7
43.07
41.7
38.04
32.85
27.54
23.26
20.26
17.98
15.81
13.72
12.54
13.59
17.97
26.07
37.46
50.95
64.84
76.85
84.2
83.76
72.73
49.34
13.14
-34.9
-92.49
-155.82
-219.21
-275.25
-315.89
-334.85
-330.61
-308.03
-277.47
-251.28
-239.14
-244.65
-264.83
-292.29
-318.8
-337.93
-346.03
-341.44
-323.38
-291.57
-246.57
-190.44
-126.58
-59.33
6.79
67.53
119.4
160.05
188.74
206.75
216.75
221.41
221.92
217.56
206.72
188.85
166.03
143.06
125.78
118.36
121.41
131.67
143.48
151.15
151.04
142.47
127.42
109.41
91.88
76.98
65.16
55.63
47.33
39.96
34.47
32.82
37.08
48.17
65.22
85.44
104.53
117.89
121.57
113.1
91.6
57.78
14.04
-35.49
-85.01
-127.52
-155.95
-164.93
-152.16
-118.87
-69.06
-8.41
56.88
120.25
174.62
212.81
228.6
218.36
182.38
125.28
55.36
-16.64
-79.1
-121.54
-137.01
-124.59
-90.53
-46.84
-7.73
15.33
17.25
0.04
-29.88
-65.8
-103.7
-142.95
-184.7
-229.59
-276.13
-320.46
-357.39
-382.15
-392
-387.57
-372.44
-351.64
-329.23
-306.42
-281.56
-252.18
-217.79
-181.53
-149.3
-126.49
-114.65
-110.07
-105.35
-93.24
-70.24
-37.98
-1.84
32.02
59.51
79.78
94.81
107.59
120.37
133.33
144.46
150.13
146.7
132.32
108.29
79.31
52.39
34.51
30.05
39.4
59.39
85.21
112.81
140.27
167.7
195.86
224.85
253.52
279.98
302.26
318.65
327.15
324.94
308.69
276.29
228.95
172.44
116.12
69.83
40.2
28.23
29.64
37.3
44.4
46.72
43.18
34.88
23.68
11.13
-1.72
-14.15
-25.39
-34.46
-40.45
-42.92
-42.35
-40.1
-38.19
-38.41
-41.58
-47.05
-52.8
-56.24
-55.34
-49.56
-40.03
-28.92
-18.46
-9.99
-3.67
1.29
5.94
10.85
15.79
19.76
21.51
20.21
16.01
10.06
4.07
-0.49
-2.95
-3.51
-2.96
-2.08
-1.35
-0.76
-0.06
0.94
2.19
3.45
4.41
4.83
4.49
3.14
0.35
-4.41
-11.5
-20.75
-31.31
-41.83
-50.92
-57.74
-62.29
-65.34
-67.82
-70.2
-72.04
-72.18
-69.32
-62.77
-52.81
-40.61
-27.67
-15.21
-3.81
6.56
16.26
25.63
34.91
44.27
54
64.47
75.81
87.5
98.19
105.92
108.72
105.41
96.08
82.13
65.76
49.26
34.45
22.46
13.78
8.4
5.96
5.73
6.62
7.38
6.84
4.3
-0.36
-6.69
-13.97
-21.54
-29.02
-36.36
-43.74
-51.32
-59.11
-66.9
-74.29
-80.79
-85.86
-89
-89.68
-87.44
-81.94
-73.11
-61.29
-47.13
-31.47
-14.98
2.03
19.57
37.75
56.4
74.84
92.07
107.17
119.9
130.87
141.37
152.71
165.6
179.85
194.56
208.57
221.02
231.53
240.17
247.26
253.26
258.83
264.93
272.73
283.19
296.29
310.53
322.93
329.83
328.09
316.27
295.07
266.95
235.13
202.51
170.88
140.89
112.26
84.41
56.74
28.96
1
-27.17
-55.84
-86.16
-120.05
-159.26
-203.61
-249.48
-289.77
-316.09
-322.31
-307.5
-276.59
-238.18
-200.97
-170.9
-150.83
-142
-145.5
-161.87
-188.73
-218.72
-240.19
-241.49
-216.85
-169.99
-113.06
-61.22
-26.02
-11.46
-14.32
-28.11
-47.5
-70.73
-99.07
-134.72
-178.75
-230.22
-286.2
-342.06
-391.83
-428.81
-446.96
-442.42
-414.81
-367.32
-305.75
-237.21
-169.24
-109.26
-64.03
-39.07
-37.52
-59.16
-100.2
-154.06
-212.87
-269.16
-316.9
-351.83
-371.45
-375.08
-363.9
-341.19
-311.91
-281.6
-254.87
-234.16
-219.19
-207.59
-196.18
-182.34
-164.93
-144.3
-121.54
-97.65
-73.31
-48.91
-25.06
-2.69
17.36
34.9
50.83
67.24
87.05
112.84
145.36
182.07
216.89
241.8
249.89
238.42
210.06
171.59
130.84
93.62
62.25
36.37
14.95
-2.04
-13.36
-17.39
-13.44
-2.15
15.03
36.62
61.41
88.12
114.97
139.96
161.49
178.82
192.08
201.66
207.51
209.02
205.62
197.67
186.79
175.51
166.05
159.22
154.21
149.29
143.25
136.34
130.23
127.01
127.8
131.8
136.6
139.33
138.09
132.72
124.41
114.57
103.78
91.63
77.58
62.02
46.75
34.27
26.49
23.72
24.53
26.9
29.5
32.48
37.11
44.75
55.87
69.63
84.42
98.57
111.02
121.31
129.37
135.21
138.84
140.27
139.58
136.82
131.86
124.34
113.88
100.42
84.53
67.49
51.05
36.89
26.07
18.74
14.19
11.17
8.36
4.76
-0.2
-6.79
-15.04
-24.68
-34.93
-44.48
-51.51
-54.32
-51.94
-44.5
-33.25
-20.06
-6.76
5.24
15.24
23.27
29.47
34
37.21
39.81
42.81
46.98
52.31
57.61
60.9
59.94
53.39
41.58
26.46
11.01
-1.81
-9.87
-12.16
-8.27
1.52
16.78
37.2
62.4
91.45
122.21
150.9
172.57
182.69
178.2
158.9
127.59
89.02
48.41
9.84
-24.53
-56.84
-87.37
-114.87
