0
0
0
0
0
0
0
0
0
0
0
0.01
0.01
0
-0.03
-0.05
-0.05
0
0.13
0.36
0.66
1.01
1.37
1.72
2.06
2.4
2.79
3.24
3.8
4.42
5.06
5.66
6.2
6.68
7.15
7.68
8.31
9.14
10.09
11.04
11.88
12.56
13.14
13.76
14.65
15.96
17.91
20.32
22.9
25.38
27.58
29.57
31.68
34.32
37.81
42.54
48.15
54.1
59.83
64.97
69.58
74.14
79.34
85.71
93.76
103
112.62
121.73
129.77
136.75
143.3
150.75
157.77
166.64
177.95
191.79
206.97
220.57
228.25
225.36
208.53
176.87
132.76
80.05
23.07
-34.94
-92.44
-149.16
-205.23
-260.37
-313.74
-363.86
-409.81
-450.87
-486.44
-515.65
-537.11
-549.06
-549.76
-538.11
-513.89
-478.3
-433.44
-381.95
-326.45
-269.2
-211.92
-155.87
-102.09
-51.43
-4.87
36.7
72.65
102.68
126.95
145.97
160.43
171.05
178.46
183.05
185.11
184.86
182.59
178.64
173.42
167.34
160.74
153.87
146.89
139.85
132.8
125.79
118.87
112.12
105.61
99.39
93.5
87.95
82.75
77.91
73.44
69.34
65.63
62.32
59.42
56.91
54.79
53.05
51.65
50.53
49.61
48.77
47.87
46.72
45.15
43
40.12
36.44
31.94
26.64
20.66
14.18
7.45
0.75
-5.66
-11.49
-16.53
-20.61
-23.62
-25.54
-26.41
-26.32
-25.43
-23.9
-21.9
-19.6
-17.14
-14.62
-12.11
-9.66
-7.3
-5.02
-2.8
-0.6
1.63
3.93
6.37
8.98
11.77
14.7
17.78
20.99
24.34
27.82
31.45
35.26
39.28
43.42
47.63
51.89
56.18
60.52
64.93
69.46
74.17
79.16
84.29
89.5
94.74
100
105.28
110.6
115.99
121.48
127.12
132.65
137.84
142.48
146.34
149.11
150.45
149.84
146.59
142.03
136.62
130.66
124.36
117.86
111.28
104.7
98.24
91.99
86.1
80.43
74.89
69.46
64.16
59.01
54.07
49.41
45.12
41.3
37.81
34.52
31.37
28.3
25.3
22.39
19.61
17.01
14.68
12.49
10.35
8.2
6
3.73
1.45
-0.78
-2.88
-4.78
-6.54
-8.21
-9.86
-11.53
-13.22
-14.86
-16.36
-17.66
-18.76
-19.82
-21.08
-22.8
-25.13
-28.07
-31.39
-34.79
-37.96
-40.81
-43.45
-46.26
-49.68
-54.02
-59.29
-65.21
-71.3
-77.14
-82.62
-88.08
-94.17
-101.67
-111.07
-122.37
-135.06
-148.38
-161.61
-174.39
-186.83
-199.49
-213.17
-228.83
-247.46
-269.7
-295.3
-322.53
-348.11
-367.78
-377.57
-375.28
-361.33
-338.57
-311.09
-282.65
-255.65
-230.9
-208.25
-187.44
-168.58
-152.03
-137.89
-125.76
-114.71
-103.75
-92.41
-80.88
-69.93
-60.5
-53.2
-48.01
-44.34
-41.19
-37.56
-32.75
-26.51
-18.99
-10.66
-1.98
6.67
15.16
23.56
32.01
40.54
49
56.96
63.87
69.26
72.91
74.88
75.5
75.19
74.34
73.21
71.96
70.66
69.33
67.99
66.62
65.17
63.6
61.85
59.86
57.62
55.14
52.49
49.79
47.18
44.75
42.48
40.22
37.77
34.93
31.62
27.93
24.01
20.1
16.4
13.03
9.99
7.16
4.33
1.22
-2.35
-6.33
-10.47
-14.3
-17.21
-18.7
-18.43
-16.34
-12.66
-7.79
-2.25
3.48
9.07
14.32
19.13
23.49
27.35
30.62
33.22
35.08
36.23
36.7
36.6
36.03
35.15
34.12
33.07
32.15
31.39
30.82
30.42
30.17
30.03
29.88
29.49
28.66
27.29
25.41
23.25
21.03
18.94
17.02
15.25
13.55
11.84
10.05
8.11
5.95
3.56
1
-1.64
-4.34
-7.17
-10.31
-13.94
-18.08
-22.49
-26.65
-29.93
-31.83
-32.04
-30.58
-27.67
-23.68
-18.96
-13.82
-8.47
-3.04
2.37
7.64
12.62
17.08
20.79
23.57
25.31
26.06
25.97
25.3
24.35
23.37
22.54
22
21.73
21.62
21.47
21.06
20.21
18.86
17.07
15.04
13.04
11.3
9.9
8.83
7.92
7.03
6.02
4.88
3.62
2.26
0.78
-0.95
-3.01
-5.43
-8.22
-11.33
-14.68
-18.17
-21.57
-24.5
-26.47
-26.93
-25.54
-22.28
-17.43
-11.54
-5.27
0.85
6.42
11.25
15.29
18.52
21.02
22.83
24.04
24.72
24.92
24.73
24.24
23.54
22.74
21.91
21.11
20.33
19.53
18.63
17.54
16.2
14.59
12.75
10.7
8.52
6.25
3.9
1.41
-1.23
-4.01
-6.85
-9.65
-12.36
-15.01
-17.77
-20.86
-24.41
-28.4
-32.56
-36.47
-39.55
-41.34
-41.52
-40
-36.93
-32.59
-27.37
-21.62
-15.7
-9.84
-4.27
0.86
5.43
9.32
12.48
14.84
16.39
17.2
17.4
17.19
16.73
16.21
15.71
15.28
14.93
14.68
14.51
14.44
14.42
14.43
14.35
14.05
13.3
11.94
9.83
7.04
3.8
0.43
-2.77
-5.61
-8.1
-10.35
-12.58
-15.01
-17.81
-20.97
-24.3
-27.39
-29.72
-30.81
-30.36
-28.32
-24.92
-20.5
-15.35
-9.76
-3.92
1.92
7.49
12.51
16.73
20.08
22.55
24.23
25.26
25.75
25.8
25.45
24.76
23.74
22.45
20.98
19.49
18.09
16.82
15.53
13.99
11.99
9.48
6.63
3.72
1.01
-1.41
-3.58
-5.66
-7.78
-10.01
-12.39
-14.95
-17.75
-20.79
-24
-27.09
-29.65
-31.2
-31.34
-29.85
-26.81
-22.5
-17.29
-11.55
-5.53
0.64
6.85
12.95
18.64
23.52
27.22
29.48
30.29
29.87
28.57
26.78
24.77
22.72
20.72
18.8
17.05
15.47
14.03
12.61
11.08
9.28
7.19
4.86
2.48
0.2
-1.92
-3.95
-6.05
-8.42
-11.22
-14.43
-17.93
-21.54
-25.04
-28.22
-30.89
-32.8
-33.69
-33.33
-31.55
-28.37
-23.94
-18.57
-12.64
-6.51
-0.5
5.15
10.28
14.73
18.35
20.95
22.45
22.79
22.12
20.67
18.78
16.8
15.05
13.71
12.8
12.22
11.74
11.12
10.23
9
7.44
5.62
3.59
1.46
-0.62
-2.31
-3.2
-2.87
-1.12
1.99
6.12
10.78
15.47
19.84
23.62
26.6
28.6
29.48
29.23
28.12
26.58
25.08
24
23.45
23.35
23.46
23.61
23.72
23.79
23.86
23.96
24.07
24.08
23.84
23.21
22.09
20.44
18.35
15.98
13.5
11.06
8.68
6.32
3.94
1.51
-0.98
-3.47
-5.93
-8.42
-10.99
-13.77
-16.75
-19.86
-22.94
-25.9
-28.71
-31.5
-34.52
-38.03
-42.13
-46.66
-51.14
-54.91
-57.28
-57.73
-56.1
-52.59
-47.59
-41.56
-34.87
-27.77
-20.47
-13.3
-6.64
-0.99
3.31
6.11
7.55
7.98
7.78
7.19
6.36
5.27
3.85
2.06
-0.08
-2.57
-5.37
-8.5
-12
-15.9
-20.19
-24.81
-29.73
-34.9
-40.37
-46.2
-52.45
-59.2
-66.47
-74.18
-82.2
-90.37
-98.55
-106.65
-114.76
-123.04
-131.76
-141.12
-151.27
-162.11
-173.29
-184.2
-194.07
-201.91
-206.61
-206.97
-201.86
-190.37
-172.01
-146.85
-115.52
-79.12
-39.03
3.18
45.73
86.75
124.3
156.67
182.57
201.42
213.33
219.04
219.62
216.23
209.98
201.89
192.74
183.18
173.58
164.11
154.7
145.18
135.35
125.17
114.75
104.35
94.3
84.95
76.55
69.17
62.79
57.23
52.19
47.39
42.56
37.57
32.39
27.09
21.68
16.14
10.41
4.42
-1.74
-7.92
-13.82
-19.14
-23.59
-26.89
-28.84
-29.28
-28.14
-25.48
-21.5
-16.52
-10.9
-5.01
0.8
6.24
11.04
14.98
17.94
19.95
21.16
21.8
22.1
22.23
22.25
22.11
21.66
20.81
19.58
18.09
16.58
15.24
14.14
13.17
12.15
10.86
9.14
6.95
4.32
1.36
-1.67
-4.38
-6.25
-6.75
-5.56
-2.73
1.38
6.17
11.03
15.54
19.44
22.62
25.01
26.54
27.19
27.09
26.48
25.66
24.84
24.15
23.55
22.99
22.41
21.84
21.38
21.07
20.92
20.82
20.62
20.19
19.42
18.29
16.88
15.28
13.58
11.87
10.19
8.55
7
5.54
4.18
2.89
1.62
0.32
-1
-2.29
-3.49
-4.59
-5.65
-6.77
-8.09
-9.71
-11.69
-14.1
-17.03
-20.59
-24.87
-29.77
-35.03
-40.14
-44.53
-47.61
-48.93
-48.28
-45.67
-41.35
-35.74
-29.3
-22.44
-15.5
-8.65
-2
4.33
10.15
15.26
19.45
22.53
24.47
25.38
25.5
25.18
24.73
24.41
24.39
24.71
25.33
26.09
26.79
27.16
26.95
26.02
24.41
22.38
20.26
18.39
16.96
16.04
15.58
15.48
15.68
16.06
16.45
16.59
16.19
15.05
13.14
10.57
7.57
4.39
1.15
-2.17
-5.77
-9.9
-14.82
-20.6
-27.04
-33.62
-39.61
-44.28
-47.11
-47.92
-46.89
-44.4
-40.96
-36.98
-32.78
-28.61
-24.69
-21.3
-18.67
-16.94
-16.09
-15.89
-15.98
-16.01
-15.65
-14.74
-13.27
-11.35
-9.14
-6.87
-4.73
-2.84
-1.25
0.05
1.18
2.26
3.42
4.71
6.22
7.95
9.97
12.28
14.72
17.11
19.16
20.66
21.51
21.79
21.6
21.09
20.34
19.39
18.29
17.04
15.75
14.49
13.38
12.55
12.27
12.89
14.85
18.54
24.12
31.53
40.51
50.66
61.58
72.93
84.47
96.02
107.5
118.89
130.19
141.37
152.27
162.5
171.52
178.65
183.22
184.65
182.42
176.14
165.62
151
132.98
112.74
91.76
71.49
53.03
37.02
23.7
13.13
5.2
-0.3
-3.84
-6.13
-7.85
-9.45
-10.95
-11.93
-11.8
-10.04
-6.43
-1.1
5.52
12.87
20.36
27.47
33.89
39.52
44.4
48.5
51.52
52.75
51.31
46.52
38.4
27.85
16.43
5.9
-2.46
-8.18
-11.73
-14.13
-16.41
-18.97
-21.18
-21.42
-17.45
-7.35
9.53
31.75
55.81
76.89
90.26
92.77
83.82
65.35
41.06
15.11
-8.83
-28.24
-41.8
-49.22
-51.1
-48.88
-44.8
-41.72
-42.67
-50.2
-65.8
-89.6
-120.65
-157.43
-198.48
-242.58
-288.36
-333.81
-376.03
-411.56
-437.3
-451.5
-454.22
-447.01
-431.95
-410.47
-382.84
-348.32
-305.84
-254.81
-195.66
-130.2
-61.63
5.62
66.4
115.89
150.77
170.09
175.31
169.34
155.1
134.36
107.44
74.02
34.37
-9.56
-54.05
-94.31
-125.69
-144.72
-149.72
-140.83
-119.91
-90.21
-56
-22.03
7.31
28.82
41.09
44.61
41.36
34.06
25.39
17.49
11.65
8.34
7.38
8.15
9.9
11.94
13.96
16.09
18.74
22.44
27.39
33.39
39.86
46.1
51.54
55.91
59.18
61.45
62.86
63.49
63.43
62.83
61.87
60.69
59.36
57.86
56.12
54.09
51.78
49.25
46.63
44.07
41.67
39.48
37.4
35.11
32.2
28.2
22.81
16.01
8.1
-0.27
-8.31
-15.2
-20.36
-23.62
-25.32
-26.23
-27.26
-29.1
-31.97
-35.58
-39.27
-42.34
-44.24
-44.64
-43.41
-40.44
-35.67
-29.17
-21.19
-12.23
-3.03
5.66
13.17
19
22.99
25.16
25.79
25.25
23.95
22.25
20.39
18.5
16.58
14.62
12.61
10.6
8.64
6.73
4.76
2.59
0.06
-2.85
-5.98
-9.02
-11.61
-13.51
-14.68
-15.36
-15.87
-16.54
-17.49
-18.66
-19.91
-21.09
-22.21
-23.37
-24.76
-26.55
-28.83
-31.54
-34.49
-37.35
-39.73
-41.17
-41.3
-39.91
-37.01
-32.83
-27.7
-21.95
-15.8
-9.36
-2.7
4.11
10.85
17.27
23.06
27.94
31.74
34.37
35.88
36.43
36.24
35.62
34.82
34.08
33.52
33.15
32.95
32.77
32.47
31.94
31.04
29.73
28
25.86
23.37
20.62
17.67
14.57
11.39
8.17
4.98
1.96
-0.76
-3.06
-4.91
-6.39
-7.66
-8.91
-10.32
-11.98
-13.94
-16.14
-18.46
-20.7
-22.57
-23.72
-23.86
-22.84
-20.66
-17.47
-13.53
-9.06
-4.23
0.85
6.08
11.37
16.56
21.46
25.9
29.76
33.01
35.74
38.06
40.07
41.78
43.11
43.92
44.1
43.62
42.5
40.83
38.66
36.07
33.12
29.88
26.49
23.06
19.68
16.39
13.19
10.09
7.14
4.4
1.88
-0.41
-2.56
-4.72
-7.06
-9.76
-12.99
-16.87
-21.43
-26.52
-31.91
-37.24
-42.15
-46.3
-49.38
-51.11
-51.18
-49.34
-45.49
-39.8
-32.7
-24.86
-17.02
-9.84
-3.76
1.1
4.86
7.71
9.8
11.12
11.52
10.84
9
6.09
2.41
-1.68
-5.74
-9.2
-11.36
-11.46
-8.95
-3.91
2.79
9.55
14.65
16.94
16.27
13.47
9.87
6.59
4.13
2.28
0.55
-1.45
-3.73
-6.01
-7.96
-9.47
-10.76
-12.27
-14.43
-17.47
-21.34
-25.83
-30.67
-35.67
-40.73
-45.7
-50.24
-53.81
-55.79
-55.72
-53.46
-49.31
-43.67
-36.97
-29.36
-20.81
-11.3
-1.03
9.48
19.51
28.36
35.54
40.84
44.27
46.02
46.32
45.46
43.85
41.96
40.26
39.08
38.51
38.44
38.6
38.74
38.69
38.46
38.04
37.4
36.43
34.93
32.76
29.96
26.77
23.48
20.31
17.27
14.28
11.19
8.04
5.04
2.52
0.75
-0.26
-0.74
-1.15
-1.98
-3.6
-6.24
-9.91
-14.44
-19.51
-24.64
-29.22
-32.63
-34.31
-33.92
-31.39
-27
-21.21
-14.56
-7.54
-0.43
6.66
13.68
20.58
27.11
32.95
37.71
41.12
43.09
43.79
43.52
42.65
41.5
40.25
39.07
38.01
37.15
36.57
36.33
36.43
36.8
37.26
37.57
37.51
36.95
35.86
34.38
32.65
30.77
28.7
26.36
23.61
20.41
16.87
13.19
9.6
6.25
3.17
0.25
-2.73
-6
-9.76
-14.02
-18.68
-23.4
-27.76
-31.23
-33.34
-33.73
-32.26
-29.01
-24.26
-18.5
-12.2
-5.82
0.29
5.96
11.1
15.62
19.41
22.32
24.19
25.01
24.93
24.19
23.06
21.74
20.29
18.69
16.91
14.93
12.8
10.61
8.4
6.17
3.97
1.83
-0.21
-2.14
-3.95
-5.69
-7.38
-9.02
-10.65
-12.38
-14.37
-16.78
-19.67
-22.93
-26.38
-29.86
-33.39
-37.12
-41.2
-45.53
-49.66
-52.87
-54.42
-53.88
-51.25
-46.95
-41.56
-35.59
-29.29
-22.71
-15.84
-8.79
-1.84
4.6
10.16
14.6
17.9
20.23
21.8
22.82
23.41
23.65
23.57
23.29
22.99
22.87
23.04
23.47
23.98
24.3
24.11
23.25
21.7
19.61
17.25
14.92
12.86
11.17
9.81
8.65
7.47
6.07
4.33
2.25
-0.11
-2.72
-5.64
-8.99
-12.94
-17.5
-22.49
-27.5
-31.98
-35.34
-37.12
-37.06
-35.17
-31.63
-26.78
-21
-14.68
-8.1
-1.5
4.98
11.23
17.12
22.5
27.2
31.11
34.16
36.36
37.79
38.61
38.96
38.97
38.76
38.43
38.08
37.81
37.69
37.67
37.63
37.37
36.7
35.52
33.87
31.91
29.87
27.97
26.28
24.77
23.26
21.53
19.36
16.65
13.4
9.75
5.91
2.14
-1.4
-4.59
-7.5
-10.28
-13.22
-16.53
-20.29
-24.31
-28.17
-31.29
-33.09
-33.18
-31.41
-27.96
-23.26
-17.81
-12.11
-6.49
-1.11
4.06
9.08
13.98
18.64
22.85
26.43
29.27
31.53
33.57
35.87
38.83
42.75
47.59
53.02
58.55
63.52
67.28
69.25
69.06
66.61
62.12
56.1
49.2
42.05
35.12
28.66
22.68
17.01
11.37
5.45
-1.01
-8.13
-15.83
-23.86
-31.82
-39.33
-46.13
-52.07
-57.1
-61.16
-64.11
-65.75
-65.9
-64.51
-61.72
-57.84
-53.24
-48.22
-42.93
-37.42
-31.66
-25.67
-19.61
-13.75
-8.39
-3.79
0.01
3.14
5.82
8.24
10.54
12.7
14.66
16.35
17.72
18.79
19.61
20.17
20.46
20.48
20.3
20.05
19.85
19.7
19.52
19.05
18.01
16.17
13.41
9.72
5.22
0.15
-5.27
-10.78
-16.19
-21.4
-26.43
-31.3
-35.95
-40.13
-43.44
-45.46
-45.91
-44.83
-42.61
-39.82
-36.98
-34.48
-32.29
-30.08
-27.41
-23.85
-19.24
-13.66
-7.51
-1.27
4.58
9.67
13.78
16.82
18.84
20.01
20.58
20.89
21.3
22.06
23.28
24.94
26.82
28.71
30.33
31.54
32.22
32.41
32.25
31.91
31.53
31.15
30.67
29.92
28.73
27
24.74
22.01
18.94
15.65
12.26
8.96
5.9
3.19
0.78
-1.59
-4.31
-7.7
-11.86
-16.58
-21.3
-25.38
-28.22
-29.48
-29.11
-27.33
-24.53
-21.09
-17.33
-13.43
-9.47
-5.47
-1.56
2.07
5.09
7.16
8.08
7.87
6.73
4.99
3
1
-0.94
-2.83
-4.84
-7.16
-10.01
-13.46
-17.39
-21.44
-25.11
-27.88
-29.47
-29.89
-29.45
-28.53
-27.48
-26.41
-25.36
-24.31
-23.3
-22.39
-21.66
-21
-20.23
-19.11
-17.47
-15.32
-12.88
-10.39
-8.04
-5.83
-3.66
-1.38
1.03
3.47
5.84
8.2
10.91
14.56
19.75
26.75
35.26
44.45
53.23
60.69
66.52
71.04
74.94
78.96
83.54
88.88
95.16
102.81
112.24
123.21
134.27
142.91
146.5
143.71
135.19
123.26
110.4
97.6
83.67
65.98
42.18
11.98
-22.34
-56.82
-87.38
-111.17
-126.9
-134.41
-133.89
-125.66
-110.44
-89.71
-65.77
-41.36
-18.84
0.45
16.36
29.69
41.55
52.8
63.77
74.4
84.54
94.38
104.42
115.35
127.74
141.66
156.69
172.1
187.13
200.94
212.56
220.63
223.49
219.42
207.22
186.64
158.58
124.78
87.41
48.62
10.16
-26.72
-61.47
-94.4
-126.88
-161.21
-199.74
-243.66
-291.5
-338.63
-377.88
-401.54
-403.88
-382.94
-341.07
-283.8
-217.83
-149.16
-82.15
-19.38
37.93
89.43
135.37
176.03
211.09
239.18
257.96
265.07
259.55
242.68
217.89
189.44
160.93
134.15
109.16
85.13
61.37
37.78
14.69
-7.77
-29.97
-52.66
-76.52
-101.68
-127.65
-153.47
-178.11
-200.69
-220.77
-238.24
-253.4
-266.77
-278.88
-290.19
-300.84
-310.66
-319.24
-326
-330.19
-330.9
-327.05
-317.33
-300.43
-275.45
-242.37
-202.58
-158.89
-115.13
-75.24
-42.22
-17.32
0.06
11.93
20.78
28.67
36.78
45.4
54.28
62.94
70.99
78.02
83.65
87.53
89.48
89.67
88.56
86.76
84.83
83.02
81.29
79.42
77.22
74.65
71.84
69.01
66.39
64.06
62
60.06
58.06
55.79
53.12
49.96
46.28
42.21
37.93
33.75
29.96
26.79
24.29
22.28
20.45
18.42
15.93
12.94
9.53
5.91
2.25
-1.36
-4.91
-8.46
-12.06
-15.74
-19.5
-23.25
-26.8
-29.84
-31.91
-32.59
-31.64
-29.09
-25.25
-20.6
-15.62
-10.6
-5.66
-0.78
4.02
8.71
13.12
17.11
20.6
23.6
26.1
28.11
29.54
30.28
30.27
29.55
28.29
26.73
25.15
23.72
22.49
21.37
20.1
18.43
16.15
13.23
9.88
6.48
3.37
0.83
-1.04
-2.28
-2.97
-3.18
-2.91
-2.17
-0.98
0.6
2.5
4.64
6.82
8.71
9.74
9.29
6.81
2.08
-4.59
-12.43
-20.3
-27.03
-31.63
-33.61
-32.93
-30.1
-25.88
-21.15
-16.64
-12.82
-9.9
-7.83
-6.47
-5.6
-5.06
-4.68
-4.26
-3.52
-2.2
-0.03
3.07
6.96
11.29
15.6
19.46
22.56
24.83
26.29
27.05
27.28
27.12
26.8
26.54
26.57
27.03
27.9
29.05
30.27
31.39
32.26
32.87
33.27
33.52
33.67
33.7
33.58
33.25
32.61
31.58
30.11
28.2
25.96
23.54
21.14
18.9
16.9
15.07
13.22
11.2
8.88
6.27
3.48
0.66
-2.1
-4.78
-7.45
-10.2
-13.04
-15.96
-18.84
-21.49
-23.68
-25.17
-25.7
-25.08
-23.18
-20.08
-16
-11.31
-6.45
-1.78
2.48
6.32
9.82
13.08
16.06
18.54
20.22
20.85
20.4
19.12
17.41
15.69
14.14
12.79
11.53
10.29
9.13
8.13
7.34
6.68
5.98
5.06
3.8
2.25
0.52
-1.24
-2.88
-4.24
-5.19
-5.67
-5.77
-5.77
-6.04
-6.86
-8.29
-10.17
-12.17
-14.07
-15.8
-17.5
-19.41
-21.72
-24.43
-27.36
-30.22
-32.67
-34.44
-35.35
-35.3
-34.26
-32.25
-29.33
-25.67
-21.52
-17.19
-12.97
-9.03
-5.42
-2.03
1.25
4.42
7.31
9.54
10.68
10.37
8.47
5.06
0.43
-5.02
-10.87
-16.79
-22.63
-28.42
-34.42
-41.04
-48.77
-57.96
-68.68
-80.63
-93.16
-105.37
-116.23
-124.79
-130.18
-131.68
-128.63
-120.47
-106.79
-87.21
-61.47
-29.53
8.12
50.17
94.21
136.99
175.07
205.67
227.43
240.52
246.32
246.7
243.43
237.9
231.11
223.84
216.66
209.88
203.51
197.21
190.54
183.28
175.48
167.54
159.88
152.76
146.11
139.64
132.96
125.75
117.77
108.73
98.28
86.04
71.84
56.01
39.56
23.97
10.73
0.77
-5.86
-9.91
-12.45
-14.48
-16.47
-18.39
-19.96
-20.96
-21.47
-21.96
-23.07
-25.32
-28.93
-33.68
-39.09
-44.62
-49.89
-54.79
-59.32
-63.46
-67.06
-69.8
-71.34
-71.49
-70.26
-67.88
-64.62
-60.77
-56.59
-52.33
-48.38
-45.09
-42.82
-41.75
-41.88
-43.03
-44.91
-47.3
-50.07
-53.27
-57.01
-61.45
-66.69
-72.77
-79.68
-87.27
-95.28
-103.22
-110.42
-116.14
-119.7
-120.65
-118.87
-114.53
-108.12
-100.27
-91.75
-83.35
-75.74
-69.3
-64.1
-59.8
-55.97
-52.2
-48.37
-44.59
-41.09
-38.04
-35.46
-33.3
-31.52
-30.16
-29.2
-28.43
-27.39
-25.51
-22.38
-17.89
-12.31
-5.98
0.82
7.98
15.48
23.1
30.43
37.03
42.68
47.67
52.76
58.82
66.52
76.03
87.1
99.28
112.13
125.32
138.45
150.99
162.24
171.4
177.81
181
180.71
176.8
169.18
157.9
143.19
125.59
105.96
85.32
64.67
44.78
26.13
8.87
-6.99
-21.53
-34.71
-46.44
-56.52
-64.78
-71.15
-75.68
-78.53
-79.97
-80.2
-79.42
-77.7
-75.14
-71.92
-68.44
-65.38
-63.63
-64.07
-67.33
-73.67
-82.81
-94.1
-106.75
-120.02
-133.44
-146.83
-160.31
-174.07
-188.27
-202.91
-217.78
-232.65
-247.31
-261.77
-276.22
-290.98
-306.23
-321.89
-337.38
-351.6
-362.98
-369.58
-369.52
-361.36
-344.57
-319.72
-288.41
-252.89
-215.43
-177.8
-140.94
-104.92
-69.31
-33.66
2.07
37.05
69.75
98.37
121.55
138.9
151.12
159.64
165.96
171.05
175.16
178.04
179.44
179.44
178.51
177.12
175.48
173.3
169.95
164.92
158.11
149.94
141.23
132.89
125.54
119.34
113.99
108.92
103.57
97.66
91.24
84.61
78.2
72.35
67.17
62.53
58.17
53.82
49.31
44.59
39.65
34.47
29.01
23.26
17.31
11.39
5.77
0.61
-4.15
-8.75
-13.55
-18.73
-24.06
-28.97
-32.69
-34.6
-34.48
-32.58
-29.47
-25.75
-21.85
-17.85
-13.69
-9.31
-4.87
-0.77
2.53
4.74
5.86
6.16
6.06
5.92
5.88
5.93
6.02
6.12
6.36
6.9
7.8
9.01
10.29
11.31
11.78
11.52
10.51
8.81
6.58
4.06
1.53
-0.71
-2.51
-3.97
-5.56
-7.92
-11.63
-16.77
-22.81
-28.72
-33.3
-35.7
-35.68
-33.55
-29.93
-25.29
-19.66
-12.61
-3.48
8.35
23.1
40.4
59.46
79.19
98.61
117.19
134.95
152.48
170.88
191.52
215.7
244.05
275.83
308.47
337.87
359.56
370.28
369.35
358.89
342.93
325.66
309.84
296.27
284.32
273.02
261.91
251.13
240.77
230.12
217.43
200.55
177.84
149.02
115.3
78.95
42.26
6.67
-27.68
-61.88
-97.77
-137.35
-182.3
-233.2
-288.91
-346.05
-399.23
-442.05
-469.01
-477.35
-468.03
-445.37
-415.33
-383.47
-353.5
-326.93
-303.85
-283.91
-266.97
-253.07
-241.89
-232.43
-223.17
-212.65
-200.08
-185.63
-170.25
-155.15
-141.13
-128.34
-116.3
-104.44
-92.48
-80.74
-70.04
-61.25
-54.9
-50.81
-48.28
-46.26
-43.85
-40.52
-36.21
-31.26
-26.28
-21.98
-19.13
-18.38
-20.19
-24.56
-30.98
-38.51
-46.01
-52.42
-56.99
-59.34
-59.42
-57.34
-53.3
-47.54
-40.38
-32.19
-23.44
-14.57
-5.98
2.01
9.25
15.73
21.55
26.95
32.22
37.6
43.22
49.06
54.96
60.67
65.93
70.52
74.3
77.28
79.53
81.23
82.57
83.69
84.66
85.42
85.86
85.81
85.09
83.54
81.04
77.55
73.16
68.1
62.71
57.31
52.12
47.21
42.42
37.47
32.05
25.78
18.54
10.4
1.89
-6.11
-12.47
-16.17
-16.57
-13.67
-8.02
-0.54
7.84
16.54
25.42
34.75
44.9
56.01
67.76
79.36
89.93
98.9
106.38
113.21
120.57
129.41
139.84
151.02
161.6
170.32
176.74
181.49
185.98
191.88
200.63
213.31
230.48
251.99
276.4
300.68
320.43
330.9
328.57
312.37
284.11
247.56
206.99
165.81
125.89
87.87
51.82
17.62
-15.02
-46.91
-79.65
-115.51
-156.92
-205.48
-260.97
-320.52
-378.51
-427.68
-461.18
-474.93
-469.08
-447.85
-417.59
-384.14
-350.86
-318.2
-285
-250.35
-214.86
-180.59
-149.85
-123.85
-102
-82.33
-62.62
-41.55
-19.21
2.98
23.17
39.94
52.87
62.59
70.3
77.17
83.75
89.85
94.67
97.39
97.52
95.22
91.16
86.18
80.96
75.76
70.5
64.89
58.74
52.11
45.28
38.66
32.47
26.75
21.3
15.83
10.28
4.91
0.25
-3.05
-4.47
-3.69
-0.7
4.43
11.54
20.5
31.1
42.94
55.48
68.13
80.45
92.36
104.08
116
128.4
141.28
154.31
167.1
179.31
190.85
201.89
212.75
223.89
235.99
249.92
266.5
285.89
306.8
326.36
340.54
345.59
339.38
322.35
297.24
267.84
237.51
208.09
179.84
152.14
124.29
95.97
67.19
38.11
8.85
-20.24
-48.37
-74.19
-96.18
-113.13
-124.56
-130.85
-132.99
-132.11
-129.24
-125.24
-120.81
-116.52
-112.68
-109.15
-105.26
-100.06
-92.62
-82.53
-70.04
-56.05
-41.78
-28.44
-16.92
-7.66
-0.76
4
6.99
8.58
9.06
8.67
7.53
5.69
3.19
0.12
-3.36
-7.04
-10.54
-13.43
-15.32
-15.95
-15.49
-14.53
-14.08
-15.21
-18.72
-24.72
-32.6
-41.11
-48.79
-54.34
-56.96
-56.58
-53.69
-49.31
-44.59
-40.57
-37.96
-37.05
-37.82
-40.11
-43.83
-48.92
-55.23
-62.34
-69.46
-75.54
-79.56
-80.87
-79.39
-75.59
-70.29
-64.36
-58.53
-53.33
-49.07
-46.03
-44.41
-44.33
-45.72
-48.21
-51.16
-53.71
-54.96
-54.21
-51.2
-46.18
-39.94
-33.62
-28.45
-25.38
-24.89
-26.84
-30.59
-35.2
-39.72
-43.41
-45.9
-47.06
-46.95
-45.6
-43.09
-39.44
-34.83
-29.64
-24.36
-19.48
-15.3
-11.81
-8.72
-5.65
-2.32
1.21
4.55
7.05
8.01
6.84
3.2
-2.82
-10.71
-19.56
-28.08
-34.94
-38.96
-39.42
-36.2
-29.69
-20.53
-9.43
2.96
16.03
28.95
40.66
49.94
55.76
57.61
55.71
50.96
44.59
37.72
31.01
24.58
18.11
11.2
3.56
-4.83
-13.75
-22.92
-32.06
-40.91
-49.22
-56.7
-63.06
-68.12
-71.84
-74.25
-75.37
-75.06
-73.18
-69.6
-64.43
-58.02
-50.91
-43.58
-36.42
-29.62
-23.28
-17.56
-12.64
-8.6
-5.39
-2.61
0.29
3.91
8.72
14.88
22.29
30.63
39.49
48.4
56.97
64.89
72.03
78.37
84.03
89.28
94.26
99.02
103.36
106.92
109.27
110.15
109.54
107.59
104.44
100.04
94.1
86.3
76.53
65.2
53.06
41.04
29.82
19.59
10.13
1.1
-7.65
-15.95
-23.46
-29.96
-35.47
-40.23
-44.55
-48.5
-51.98
-54.73
-56.65
-57.75
-58.33
-58.71
-59.2
-59.93
-60.96
-62.23
-63.64
-65.09
-66.41
-67.42
-67.94
-67.76
-66.74
-64.82
-62.15
-59.12
-56.3
-54.26
-53.43
-53.85
-55.22
-57.11
-59.14
-61.25
-63.66
-66.73
-70.77
-75.83
-81.68
-87.78
-93.52
-98.36
-102.01
-104.58
-106.66
-109.06
-112.6
-117.74
-124.41
-132.06
-139.88
-147.11
-153.33
-158.44
-162.62
-166.1
-169.03
-171.38
-173.04
-173.73
-172.9
-169.75
-163.33
-152.75
-137.65
-118.31
-95.63
-70.78
-44.66
-17.54
10.67
39.71
68.13
93.07
111.05
119.65
118.94
111.86
103
96.52
94.31
95.54
97.57
97.75
94.68
88.46
79.73
68.67
54.76
37.49
17.5
-2.78
-19.6
-29.35
-29.79
-20.88
-4.63
15.74
36.67
55.09
68.61
75.69
75.61
68.64
55.99
39.78
22.47
6.14
-8.13
-20.45
-31.87
-43.77
-57
-71.43
-86.06
-99.64
-111.59
-122.22
-132.32
-142.08
-150.39
-155.17
-154.82
-149.64
-142.37
-137.04
-136.82
-141.87
-148.74
-151.52
-144.39
-124.15
-91.35
-49.9
-5.35
37.04
73.56
102.47
123.78
138.65
148.72
155.72
161.15
166.11
171.27
176.77
182.16
186.43
188.25
186.26
179.6
168.21
152.91
135.33
117.44
101.12
87.55
77
68.8
61.66
54.24
45.65
35.8
25.28
15.09
6.23
-0.64
-5.32
-7.93
-8.85
-8.55
-7.54
-6.3
-5.24
-4.66
-4.64
-5.04
-5.57
-5.97
-6.15
-6.23
-6.51
-7.32
-8.96
-11.69
-15.86
-21.81
-29.7
-39.08
-48.63
-56.31
-60.02
-58.57
-52.31
-43.06
-33.37
-25.37
-19.98
-16.82
-14.79
-12.92
-10.92
-9.14
-8.13
-8.11
-8.84
-9.73
-10.33
-10.49
-10.29
-9.84
-8.93
-7.02
-3.37
2.53
10.64
20.28
30.25
39.21
46.07
50.34
52.22
52.43
51.94
51.66
52.19
53.78
56.23
58.93
60.97
61.29
59.04
53.86
46.07
36.69
27.02
18.25
10.96
5.07
0.02
-4.66
-8.94
-12.15
-13.23
-11.23
-5.62
3.62
16.18
31.52
48.79
66.58
82.72
94.81
101.12
101.66
98.61
95.65
96.52
103.42
116.29
133.07
150.89
167.05
179.7
187.75
190.53
187.56
178.72
164.69
147.04
127.98
109.68
93.44
79.42
66.87
54.82
42.83
31.35
21.59
14.95
12.41
14.04
19.19
26.68
35.28
43.78
50.99
55.55
56.09
51.51
41.44
26.51
8.16
-11.65
-31.06
-48.66
-63.7
-75.92
-85.35
-92.1
-96.24
-97.85
-97.08
-94.16
-89.3
-82.54
-73.83
-63.13
-50.77
-37.57
-24.89
-14.17
-6.46
-2
-0.24
-0.15
-0.82
-2.05
-4.41
-9.01
-16.92
-28.55
-43.34
-59.74
-75.47
-88.06
-95.37
-96.17
-90.44
-79.35
-65.01
-50.01
-36.79
-27.09
-21.75
-20.64
-22.92
-27.43
-33.08
-39.04
-44.84
-50.32
-55.44
-60.16
-64.41
-68.09
-71.24
-73.91
-75.98
-76.92
-75.73
-71.1
-62.1
-48.77
-32.5
-15.77
-1.29
9
14.62
16.63
16.97
17.5
19.35
22.58
26.68
31
35.27
39.65
44.45
49.72
55.02
59.46
62.02
62.04
59.61
55.55
51.09
47.35
44.9
43.6
42.89
42.07
40.7
38.65
36.07
33.21
30.3
27.53
24.99
22.7
20.53
18.23
15.5
12.11
8.06
3.5
-1.28
-6.02
-10.51
-14.56
-18
-20.67
-22.43
-23.22
-23.01
-21.76
-19.31
-15.41
-9.82
-2.43
6.64
17.06
28.32
39.84
51
61.21
69.9
76.68
81.44
84.37
85.92
86.64
87.04
87.48
88.25
89.57
91.65
94.58
98.09
101.38
103.04
101.44
95.29
84.23
69.22
52.28
35.87
22.06
11.88
5.17
1.02
-1.78
-4.03
-6.15
-8.18
-10.19
-12.38
-15.1
-18.73
-23.34
-28.69
-34.18
-38.96
-42.11
-42.85
-40.97
-36.96
-32.16
-28.29
-26.82
-28.35
-32.33
-37.31
-41.61
-44.06
-44.32
-42.79
-40.1
-36.72
-32.74
-28.04
-22.62
-16.66
-10.6
-4.8
0.56
5.51
10.19
14.63
18.78
22.48
25.66
28.4
30.95
33.53
36.14
38.51
40.16
40.7
40.18
39.33
39.51
42.33
49.16
60.55
76.03
93.98
112.06
127.7
138.92
145.01
146.79
146.43
146.48
148.75
153.33
158.31
160.53
156.82
145.41
126.65
102.79
77.09
52.63
31.51
14.58
1.65
-7.93
-14.94
-20.03
-23.78
-26.85
-30.04
-34.16
-39.8
-47.04
-55.28
-63.38
-70.01
-74.24
-75.86
-75.55
-74.53
-74.08
-74.98
-77.36
-80.69
-84.18
-87.11
-89.08
-90.06
-90.36
-90.41
-90.56
-90.97
-91.44
-91.58
-90.96
-89.38
-86.92
-83.95
-80.87
-77.96
-75.33
-72.94
-70.83
-69.11
-67.92
-67.29
-66.94
-66.4
-65.13
-62.83
-59.47
-55.31
-50.74
-46.13
-41.71
-37.68
-34.13
-31.1
-28.53
-26.19
-23.73
-20.78
-17.19
-13.09
-8.91
-5.24
-2.57
-1.23
-1.27
-2.61
-5.01
-8.22
-11.87
-15.54
-18.87
-21.6
-23.66
-25.16
-26.24
-27.03
-27.5
-27.59
-27.21
-26.46
-25.6
-25.03
-25.13
-26.12
-27.95
-30.3
-32.66
-34.53
-35.54
-35.52
-34.52
-32.67
-30.16
-27.1
-23.62
-19.84
-16.03
-12.45
-9.43
-7.19
-5.83
-5.28
-5.37
-5.89
-6.65
-7.51
-8.39
-9.22
-9.94
-10.52
-10.93
-11.11
-11.01
-10.57
-9.86
-9.04
-8.35
-8.08
-8.39
-9.23
-10.31
-11.07
-10.94
-9.4
-6.19
-1.36
4.64
11.15
17.5
23.25
28.47
33.64
39.5
46.53
54.66
63.2
71.09
77.39
81.81
84.94
88.14
93.24
101.93
115.39
133.72
155.69
178.6
198.6
211.47
213.76
203.91
182.86
153.94
121.94
91.89
67.9
52.4
46.02
47.85
55.92
67.85
81.19
93.66
103.06
107.23
104.04
91.62
68.9
36.11
-5
-51.35
-99.21
-145.05
-186.08
-220.5
-247.23
-265.68
-275.63
-277.43
-272.17
-261.69
-248.21
-233.68
-219.11
-204.31
-187.96
-168.39
-144.31
-115.63
-83.6
-50.57
-19.26
8.1
30.41
47.81
61.36
72.41
82.06
90.85
98.97
106.58
114.16
122.49
132.27
143.54
155.26
165.38
171.24
170.34
161.05
143.08
117.47
86.31
52.21
17.74
-15.02
-44.67
-70.66
-92.99
-111.82
-126.92
-137.24
-140.87
-135.57
-119.78
-93.72
-59.97
-23.13
11.31
38.54
55.73
62.44
60.23
51.74
39.68
26.27
13.09
1.25
-8.46
-15.59
-20.06
-22.2
-22.5
-21.27
-18.35
-13.12
-4.83
6.83
21.32
37.14
52.21
64.6
73.27
78.59
82.22
86.55
93.69
104.51
117.99
131.28
140.47
141.83
133.17
114.68
88.73
59.07
29.45
2.62
-20.08
-38.61
-53.59
-65.92
-76.66
-87.09
-98.75
-113.1
-131.07
-152.57
-176.4
-200.48
-222.49
-240.52
-253.44
-260.89
-263.09
-260.55
-253.88
-243.92
-231.7
-218.44
-205.19
-192.4
-179.61
-165.45
-148.29
-127.21
-102.61
-76.27
-50.62
-27.59
-7.72
9.71
25.9
41.35
55.18
65.49
70.34
69
62.47
53.12
43.71
36.21
31.38
29.02
28.59
29.79
32.6
37.04
42.76
48.94
54.59
58.93
61.73
63.39
64.68
66.46
69.25
73.18
77.92
82.87
87.22
90.11
90.8
88.73
83.7
75.89
65.71
53.79
40.82
27.51
14.52
2.49
-7.96
-16.31
-22.14
-25.29
-25.9
-24.45
-21.71
-18.51
-15.55
-13.1
-10.83
-7.83
-2.96
4.72
15.51
28.85
43.38
57.38
69.32
78.28
84.09
87.22
88.46
88.61
88.15
87.22
85.56
82.66
77.95
70.91
61.22
48.94
34.47
18.73
2.92
-11.65
-23.84
-33.05
-39.38
-43.56
-46.73
-49.96
-53.91
-58.59
-63.46
-67.69
-70.57
-71.84
-71.76
-70.99
-70.33
-70.31
-70.95
-71.79
-72.01
-70.93
-68.28
-64.35
-59.95
-56.04
-53.39
-52.3
-52.53
-53.29
-53.39
-51.41
-45.9
-35.74
-20.58
-1.09
21.01
43.29
63.39
79.65
91.54
99.65
105.2
109.43
113.17
116.64
119.61
121.75
122.73
122.29
120.16
115.97
109.38
100.26
88.95
76.24
63.14
50.63
39.34
29.53
21.19
14.22
8.41
3.3
-1.89
-8.12
-16.24
-26.51
-38.36
-50.56
-61.66
-70.51
-76.61
-80.15
-81.83
-82.57
-83.23
-84.38
-86.22
-88.44
-90.2
-90.45
-88.24
-83.22
-75.86
-67.2
-58.5
-50.64
-43.84
-37.73
-31.74
-25.39
-18.56
-11.41
-4.18
2.95
9.95
16.76
23.27
29.32
34.81
39.81
44.42
48.77
52.77
56.18
58.76
60.48
61.64
62.77
64.5
67.16
70.62
74.16
76.54
76.33
72.33
63.96
51.62
36.58
20.76
6.09
-6
-14.96
-21.17
-25.57
-29.27
-33.05
-37.14
-41.23
-44.73
-47.11
-48.14
-47.98
-47.01
-45.54
-43.66
-41.21
-38.03
-34.06
-29.54
-24.94
-20.68
-17.04
-14.04
-11.52
-9.32
-7.27
-5.28
-3.29
-1.24
0.87
2.94
4.75
6
6.42
5.94
4.7
3.06
1.46
0.27
-0.24
-0.02
0.84
2.09
3.44
4.6
5.33
5.52
5.17
4.39
3.33
2.12
0.78
-0.78
-2.77
-5.39
-8.76
-12.81
-17.24
-21.51
-24.98
-27.13
-27.7
-26.76
-24.65
-21.81
-18.62
-15.27
-11.81
-8.17
-4.35
-0.4
3.49
7.14
10.43
13.36
15.99
18.43
20.68
22.69
24.33
25.47
26
25.91
25.25
24.09
22.51
20.51
18.07
15.21
11.99
8.53
5.04
1.69
-1.41
-4.29
-7.09
-9.95
-12.97
-16.11
-19.19
-21.95
-24.14
-25.63
-26.47
-26.9
-27.25
-27.91
-29.11
-30.9
-33.13
-35.48
-37.6
-39.27
-40.39
-40.92
-40.81
-39.91
-38.04
-35.11
-31.19
-26.63
-21.86
-17.31
-13.14
-9.22
-5.25
-0.9
3.92
9.05
14.12
18.72
22.55
25.47
27.51
28.73
29.24
29.06
28.22
26.79
24.92
22.81
20.66
18.66
16.97
15.71
15
14.94
15.54
16.67
18.02
19.11
19.5
18.87
17.18
14.67
11.68
8.59
5.56
2.52
-0.73
-4.54
-9.16
-14.63
-20.69
-26.84
-32.3
-36.39
-38.64
-38.97
-37.72
-35.41
-32.49
-29.24
-25.66
-21.64
-17.24
-12.65
-8.28
-4.52
-1.6
0.54
2.15
3.54
4.9
6.25
7.48
8.45
9.13
9.59
9.92
10.15
10.19
9.88
9.06
7.71
5.96
4.05
2.16
0.31
-1.68
-4.04
-6.93
-10.29
-13.85
-17.21
-20.02
-22.09
-23.39
-24.05
-24.24
-24.13
-23.91
-23.7
-23.6
-23.6
-23.58
-23.31
-22.46
-20.74
-17.98
-14.22
-9.72
-4.88
-0.15
4.09
7.62
10.39
12.5
14.12
15.42
16.53
17.51
18.41
19.34
20.43
21.87
23.81
26.33
29.34
32.64
35.93
38.87
41.22
42.86
43.84
44.39
44.84
45.54
46.73
48.44
50.47
52.44
53.88
54.4
53.72
51.79
48.83
45.39
42.2
40.03
39.27
39.69
40.31
39.72
36.49
29.83
19.86
7.63
-5.29
-17.37
-27.61
-35.61
-41.53
-45.86
-49.19
-52.13
-55.2
-58.81
-63.08
-67.75
-72.11
-75.19
-76.03
-74
-68.92
-61.08
-51.08
-39.57
-27.23
-14.6
-2.14
9.75
20.75
30.51
38.57
44.43
47.6
47.88
45.56
41.43
36.69
32.54
29.78
28.57
28.55
29.05
29.43
29.26
28.3
26.28
22.91
17.82
10.86
2.19
-7.58
-17.57
-26.9
-34.96
-41.46
-46.4
-49.84
-51.75
-52.03
-50.67
-47.78
-43.68
-38.76
-33.36
-27.6
-21.5
-15.06
-8.48
-2.08
3.72
8.63
12.63
15.89
18.6
20.8
22.32
22.91
22.47
21.24
19.77
18.72
18.49
18.97
19.62
19.76
18.9
17.1
14.9
13.14
12.51
13.36
15.57
18.61
21.73
24.13
25.13
24.25
21.41
16.89
11.27
5.32
-0.23
-4.8
-8.08
-9.96
-10.49
-9.81
-8.13
-5.73
-2.92
0
2.79
5.4
7.95
10.8
14.36
19.01
24.8
31.34
37.89
43.52
47.45
49.28
49.01
46.92
43.28
38.25
31.84
24.08
15.2
5.68
-3.77
-12.44
-19.77
-25.53
-29.73
-32.56
-34.22
-34.82
-34.41
-32.98
-30.69
-27.83
-24.83
-22.06
-19.73
-17.78
-15.94
-13.9
-11.58
-9.21
-7.32
-6.54
-7.33
-9.82
-13.69
-18.24
-22.54
-25.7
-27
-26.1
-23.03
-18.19
-12.25
-5.95
0.04
5.22
9.23
11.87
12.92
12.28
9.97
6.27
1.73
-2.87
-6.73
-9.21
-10.04
-9.34
-7.55
-5.28
-3.13
-1.6
-0.96
-1.32
-2.59
-4.53
-6.72
-8.55
-9.3
-8.28
-5.07
0.3
7.25
14.8
21.82
27.43
31.27
33.55
34.86
35.8
36.6
36.99
36.29
33.71
28.74
21.56
13.01
4.42
-2.74
-7.32
-8.79
-7.36
-3.86
0.54
4.67
7.59
8.78
8.15
6.06
3.1
0.06
-2.33
-3.57
-3.46
-2.24
-0.41
1.42
2.68
2.99
2.23
0.47
-2.05
-4.99
-8
-10.79
-13.18
-15.17
-16.97
-18.83
-21.07
-23.92
-27.49
-31.76
-36.52
-41.35
-45.54
-48.29
-48.84
-46.7
-41.8
-34.47
-25.29
-14.9
-3.88
7.24
17.98
27.82
36.26
42.85
47.35
49.77
50.39
49.85
49.05
49.04
50.73
54.5
59.92
65.75
70.3
72.12
70.63
66.37
60.65
54.92
50
45.71
41.13
35.15
27.08
17.02
5.75
-5.61
-16.06
-24.93
-31.97
-37.15
-40.59
-42.44
-42.96
-42.51
-41.61
-40.74
-40.24
-40.2
-40.44
-40.62
-40.43
-39.67
-38.36
-36.6
-34.46
-31.95
-29.01
-25.61
-21.94
-18.35
-15.24
-12.98
-11.66
-11.03
-10.57
-9.64
-7.76
-4.78
-1.02
2.85
6.03
7.9
8.28
7.43
5.95
4.53
3.63
3.41
3.79
4.55
5.58
6.85
8.42
10.36
12.61
14.99
17.26
19.14
20.42
20.92
20.48
18.93
16.11
11.96
6.55
0.18
-6.7
-13.48
-19.54
-24.25
-27.1
-27.69
-25.87
-21.69
-15.44
-7.55
1.51
11.3
21.45
31.62
41.37
50.15
57.19
61.49
61.95
57.73
48.76
36.1
22.03
9.37
0.31
-4.72
-7.6
-11.83
-20.86
-36.16
-56.13
-76.53
-92.25
-99.38
-96.78
-86.08
-70.83
-55.05
-42.16
-34.33
-32.46
-36.02
-43.02
-50.1
-53.02
-48.02
-33.58
-11.75
11.64
28.63
32.11
19.12
-7.26
-38.61
-64.33
-75.97
-70.43
-50.57
-22.86
6.29
33.46
58.96
85.16
114.09
145.73
178.06
208.3
234.54
256.29
274
288.09
298.14
302.72
300
288.63
268.41
240.86
209.14
177.45
149.89
129.13
115.58
107.47
101.93
96.57
90.48
84.19
78.67
74.12
69.34
62.14
50.5
33.55
11.9
-12.76
-38.5
-63.7
-87.29
-108.58
-127.05
-142.25
-153.87
-161.87
-166.41
-167.85
-166.7
-163.56
-159.15
-154.31
-149.94
-147.11
-146.97
-150.65
-159.05
-172.43
-190.08
-210.4
-231.18
-250.17
-265.65
-276.71
-283.34
-286.31
-286.68
-285.48
-283.25
-279.48
-272.35
-258.79
-235.46
-200.28
-154.04
-100.9
-47.47
-0.6
35.17
59.08
73.95
84.52
95.19
108.46
124.67
143.22
164.1
188.71
219
255.79
297.22
338.41
372.99
395.58
404.05
400.35
389.5
377.08
366.79
359.26
352.32
342.83
328.27
307.9
282.64
254.35
224.89
195.49
166.51
137.44
107.35
75.31
40.85
4.38
-32.86
-69.07
-102.42
-131.63
-156.52
-178.11
-198.61
-221.07
-248.81
-284.23
-327.28
-374.37
-418
-448.07
-454.39
-430.02
-374.17
-293.33
-200.05
-109.49
-34.96
15.7
41.68
48.16
43.47
35.72
30.26
28.97
30.95
33.99
35.78
34.56
28.91
17.6
-0.41
-25.54
-57.28
-94.21
-134.47
-176.66
-220.71
-268.16
-321.08
-380.22
-443.01
-502.81
-550.33
-576.74
-577.21
-553.06
-511.25
-461.67
-413.43
-372.24
-339.79
-315.08
-296.27
-282.11
-272.01
-265.53
-261.67
-258.78
-255.24
-250.1
-243.47
-236.42
-230.29
-226
-223.47
-221.59
-218.6
-212.74
-202.8
-188.46
-170.11
-148.48
-124.06
-96.83
-66.25
-31.6
7.54
50.89
97.25
144.78
191.41
235.33
275.53
311.77
344.5
374.43
402.19
427.94
451.51
472.44
490.41
505.43
517.93
528.84
539.42
551.14
565.33
582.77
603.13
624.72
644.62
659.38
666.08
663.31
651.49
632.33
607.73
578.77
545.34
506.77
462.65
413.58
361.22
307.55
254.07
201.23
148.59
95.3
40.98
-13.99
-68.42
-120.96
-170.64
-217.32
-261.76
-305.22
-349.03
-394.18
-441.38
-491.07
-543.31
-596.94
-648.62
-692.58
-721.81
-730.56
-716.92
-683.81
-637.69
-585.62
-532.3
-478.86
-424.04
-366.58
-307.16
-248.65
-194.41
-146.4
-104.05
-64.99
-26.74
11.72
49.52
84.63
115.2
140.72
162.46
183.11
205.83
233.13
265.85
302.45
339.22
371.01
392.64
400.38
393.03
372.17
341.58
306.11
270.44
238.19
211.59
191.47
177.46
168.18
161.41
154.4
144.39
129.29
108.31
82.28
53.44
24.79
-0.8
-21.47
-36.81
-47.74
-56.01
-63.35
-70.88
-78.78
-86.26
-92.1
-95.18
-94.96
-91.72
-86.38
-79.98
-73.28
-66.41
-58.95
-50.25
-39.9
-27.98
-15.07
-2.31
8.64
15.77
17.23
12.1
1.2
-12.66
-25.35
-32.85
-32.89
-25.74
-13.93
-0.83
10.86
20.06
27.17
33.21
38.75
43.48
46.53
47
44.58
39.66
32.97
25.35
17.27
8.94
0.31
-8.52
-17.34
-25.69
-33.02
-38.92
-43.27
-46.31
-48.59
-50.77
-53.29
-56.17
-59.01
-61.01
-61.34
-59.44
-55.22
-49.06
-41.69
-33.95
-26.57
-19.95
-14.25
-9.42
-5.46
-2.47
-0.67
-0.18
-0.8
-1.97
-2.82
-2.6
-0.98
1.73
4.73
7.18
8.69
9.51
10.49
12.58
16.37
21.77
28
33.96
38.54
41.08
41.61
40.74
39.66
39.68
41.91
46.89
54.55
64.11
74.45
84.62
94.18
103.63
114.55
129.37
150.57
179.49
215.11
253.53
288.56
313.52
323.49
316.97
296.11
265.4
229.51
191.48
152.09
110.69
66.68
20.87
-24.34
-65.8
-100.74
-127.64
-146.3
-157.18
-160.84
-157.79
-148.82
-135.49
-120.16
-105.25
-92.21
-80.76
-69.12
-55.28
-38.4
-19.69
-1.96
11.76
19.52
20.89
16.44
6.81
-7.88
-27.57
-51.48
-77.49
-102.5
-123.63
-139.38
-150.03
-157.05
-161.87
-164.93
-165.47
-162.14
-153.84
-140.26
-121.79
-99.29
-73.83
-46.56
-18.85
7.61
30.98
49.61
62.49
69.47
71.29
69.12
64.15
57.03
47.6
34.98
18.12
-3.48
-29.23
-57.28
-84.73
-108.21
-124.33
-130.15
-123.57
-103.9
-72.49
-33.02
8.95
47.02
75.69
91.87
95.62
89.83
78.95
67.27
57.56
50.29
43.81
35.08
20.87
-1.12
-31.34
-68.01
-107.2
-143.74
-172.63
-190.38
-196.04
-191.36
-179.98
-166.06
-152.81
-141.64
-132.19
-123.22
-113.63
-103.17
-92.35
-81.67
-70.92
-59.18
-45.37
-29.11
-11.37
5.73
19.76
29.11
33.75
35.14
35.6
37.16
40.86
46.64
53.97
62.45
72.19
83.62
96.71
110.39
122.52
130.44
132.03
126.51
114.71
98.61
80.5
62.35
45.44
30.48
17.74
7.19
-1.41
-8.42
-14.15
-18.78
-22.29
-24.65
-26.06
-26.9
-27.61
-28.47
-29.34
-29.74
-29.05
-26.73
-22.67
-17.31
-11.75
-7.51
-6.14
-8.64
-14.83
-23.18
-30.9
-34.71
-31.86
-21.28
-4.19
15.8
33.77
45.09
47.13
40.23
27.56
13.85
3.63
-0.21
3.04
12.31
25.55
40.36
54.42
65.74
72.96
75.8
75.28
73.39
72.26
73.23
76.39
81.06
86.77
94
104.14
118.25
135.24
151
159.35
154.7
135.37
105.51
74.37
53.01
49.9
67.34
100.73
140.88
177.97
205.38
221.18
227.44
227.75
224.88
219.67
211.59
200.02
185.32
169.12
153.3
138.78
124.46
107.22
82.66
46.45
-4.39
-70.22
-147.94
-230.85
-309.63
-374.49
-417.86
-436.72
-433.31
-413.82
-385.81
-355.37
-325.71
-297.26
-269.01
-239.92
-209.3
-176.5
-140.46
-100.06
-55.33
-8.85
33.98
66.29
82.07
78.95
59.41
30.19
-0.1
-23.91
-36.95
-38.84
-32.18
-20.77
-7.96
4.21
14.99
24.35
32.35
38.83
43.59
46.72
48.93
51.52
55.85
62.79
72.18
82.87
93.2
101.68
107.51
110.9
112.93
115.12
118.88
124.94
132.93
141.16
146.74
146.09
135.82
113.72
79.62
35.88
-12.8
-60.2
-99.91
-126.93
-139.18
-138.11
-128.29
-116
-107.19
-105.65
-112.13
-124.63
-139.65
-153.57
-163.68
-168.43
-167.27
-160.18
-147.56
-130.22
-109.38
-86.55
-63
-39.57
-16.51
6.27
28.68
50.23
70.16
87.78
102.62
114.38
122.62
126.68
126.04
120.87
112.52
103.19
95.08
89.34
85.56
82.17
77.47
70.64
61.93
52.15
41.82
30.74
18.24
3.99
-11.44
-26.47
-39.17
-47.99
-52.3
-52.37
-49.06
-43.2
-35.39
-26.03
-15.58
-4.77
5.35
13.71
19.52
22.69
23.77
23.63
23
22.08
20.62
18.16
14.45
9.83
5.13
1.4
-0.46
0.04
3
8.13
14.82
22.24
29.22
34.45
36.74
35.34
30.12
21.67
11.07
-0.29
-11.01
-19.94
-26.3
-29.95
-31.38
-31.6
-31.82
-33.03
-35.69
-39.77
-44.94
-50.94
-57.81
-65.79
-75.05
-85.45
-96.43
-107.14
-116.67
-124.24
-129.27
-131.31
-130.07
-125.49
-117.87
-107.85
-96.35
-84.27
-72.27
-60.64
-49.32
-38.1
-26.82
-15.39
-3.83
7.83
19.55
31.21
42.59
53.32
62.97
71.16
77.69
82.69
86.58
90.02
93.69
98.14
103.63
110.22
117.82
126.49
136.55
148.61
163.31
180.7
199.66
217.77
231.75
238.54
236.39
225.48
207.83
186.44
164.23
143.26
124.4
107.5
91.69
75.77
58.43
38.67
16.26
-7.91
-31.84
-53.03
-69.41
-80.09
-85.54
-86.98
-85.54
-81.53
-74.37
-63.02
-46.77
-25.74
-0.97
25.96
53.41
80
104.71
126.57
144.56
157.53
164.41
164.56
157.99
145.5
128.47
108.53
87.24
65.8
44.91
24.9
5.87
-12.15
-29.02
-44.52
-58.32
-70.02
-79.27
-85.79
-89.49
-90.38
-88.7
-84.81
-79.21
-72.49
-65.44
-58.99
-54.08
-51.44
-51.24
-52.9
-55.21
-56.64
-55.99
-52.72
-47.02
-39.47
-30.6
-20.58
-9.39
2.86
15.52
27.38
37.07
43.59
46.8
47.41
46.67
45.65
44.79
43.7
41.45
37.12
30.25
20.99
9.87
-2.52
-15.88
-30.2
-45.57
-61.88
-78.72
-95.53
-111.96
-128
-143.84
-159.35
-173.67
-185.17
-192.1
-193.53
-189.99
-183.41
-176.12
-169.48
-163.1
-154.93
-142.37
-123.73
-99.06
-70.33
-40.66
-13.43
8.4
22.64
28.37
26.29
19.18
11.47
8.15
12.9
26.82
48.24
73.94
100.86
127.35
153.17
178.48
202.7
224.24
241.43
253.85
263.08
272.01
283.1
296.58
309.85
318.5
318.44
307.94
288.43
263.68
238.04
214.63
194.46
176.63
159.36
141.04
120.88
99.03
76.32
53.96
33.09
14.47
-1.93
-17
-32.57
-50.95
-74.34
-104.27
-141.1
-184.01
-231.22
-280.44
-329.33
-375.79
-418.11
-455.02
-485.59
-509.32
-526.1
-536.15
-539.86
-537.45
-528.84
-513.69
-491.74
-463.29
-429.41
-391.93
-353.01
-314.62
-278.19
-244.49
-213.7
-185.55
-159.51
-134.79
-110.6
-86.25
-61.51
-36.79
-13.14
7.95
25.09
37.57
45.75
51.2
56.27
63.31
73.72
87.27
102.08
115.27
124
126.53
122.73
113.98
102.53
90.64
79.99
71.45
65.21
60.98
58.35
56.87
56.02
55.27
54.06
51.91
48.53
43.88
38.23
31.96
25.46
19.08
13.01
7.42
2.49
-1.51
-4.21
-5.23
-4.26
-1.22
3.7
10.06
17.28
24.65
31.51
37.36
42.02
45.62
48.58
51.31
54.1
56.88
59.34
61.1
61.83
61.5
60.25
58.41
56.26
54.01
51.73
49.51
47.41
45.45
43.67
41.97
40.2
38.22
35.86
33.09
29.96
26.62
23.19
19.83
16.65
13.7
10.99
8.43
5.85
3.04
-0.19
-3.94
-8.17
-12.67
-17.1
-21.01
-23.97
-25.57
-25.54
-23.79
-20.42
-15.78
-10.34
-4.6
1.04
6.38
11.44
16.41
21.43
26.49
31.33
35.48
38.43
39.84
39.73
38.52
36.93
35.7
35.34
35.92
37.12
38.29
38.83
38.36
36.95
35.03
33.29
32.31
32.37
33.2
34.18
34.54
33.78
31.95
29.7
28.13
28.45
31.62
37.94
46.82
56.67
65.09
69.43
67.76
59.84
47.67
35.25
27.34
27.8
38.06
56.6
79.52
102.14
120.59
132.91
139.08
140.25
137.79
132.63
125.17
115.64
104.56
92.85
81.52
71.28
62.07
53.2
43.65
32.69
20.21
6.77
-6.68
-19.19
-30.14
-39.38
-47.19
-54.07
-60.5
-66.76
-72.84
-78.44
-83.16
-86.62
-88.6
-89.08
-88.12
-85.78
-82.1
-77.16
-71.2
-64.69
-58.16
-52.11
-46.7
-41.78
-36.96
-31.87
-26.39
-20.67
-15.08
-9.92
-5.33
-1.17
2.77
6.64
10.36
13.57
15.82
16.71
16.14
14.35
11.84
9.17
6.78
4.89
3.49
2.54
2.05
2.07
2.64
3.65
4.76
5.49
5.37
4.15
1.95
-0.85
-3.74
-6.27
-8.21
-9.58
-10.58
-11.53
-12.76
-14.55
-17.07
-20.26
-23.82
-27.21
-29.8
-30.99
-30.45
-28.16
-24.4
-19.64
-14.34
-8.87
-3.47
1.76
6.79
11.6
16.12
20.27
24
27.3
30.19
32.8
35.21
37.47
39.49
41.1
42.03
41.91
40.44
37.35
32.6
26.34
18.99
11.1
3.15
-4.51
-11.71
-18.39
-24.33
-29.04
-31.9
-32.31
-30.13
-25.76
-20.14
-14.38
-9.3
-5.2
-1.86
1.17
4.27
7.53
10.83
13.99
17.01
19.9
22.63
24.88
26.06
25.69
23.71
20.68
17.64
15.64
15.18
16.06
17.44
18.31
18.01
16.46
14.12
11.75
10.05
9.47
10.16
12.02
14.75
17.94
21.09
23.64
25.14
25.31
24.1
21.74
18.61
15.09
11.46
7.78
3.95
-0.19
-4.8
-9.89
-15.39
-21.17
-27.05
-32.84
-38.23
-42.76
-45.88
-47.1
-46.16
-43.25
-38.87
-33.73
-28.45
-23.36
-18.49
-13.75
-9.07
-4.54
-0.43
3.04
5.75
7.78
9.31
10.57
11.62
12.46
13.02
13.3
13.39
13.48
13.73
14.27
15.13
16.28
17.62
19.06
20.45
21.59
22.21
22.02
20.8
18.41
14.93
10.57
5.7
0.75
-3.93
-8.12
-11.78
-15
-17.92
-20.56
-22.83
-24.48
-25.27
-24.95
-23.38
-20.59
-16.72
-12.08
-7.03
-1.97
2.72
6.77
10.01
12.46
14.17
15.17
15.44
14.85
13.24
10.5
6.74
2.28
-2.34
-6.61
-10.19
-13.03
-15.32
-17.37
-19.36
-21.27
-22.96
-24.31
-25.38
-26.39
-27.6
-29.06
-30.55
-31.56
-31.51
-30.03
-27.06
-22.88
-17.97
-12.83
-7.81
-3.07
1.4
5.66
9.72
13.51
16.95
19.93
22.45
24.59
26.51
28.33
30.09
31.71
33.05
33.94
34.34
34.32
34
33.49
32.77
31.68
30.02
27.65
24.59
21.03
17.23
13.46
9.91
6.69
3.85
1.48
-0.33
-1.57
-2.31
-2.76
-3.24
-4.04
-5.33
-7.11
-9.18
-11.33
-13.42
-15.48
-17.68
-20.16
-22.97
-25.97
-28.96
-31.83
-34.66
-37.71
-41.23
-45.29
-49.65
-53.77
-57.06
-59.08
-59.7
-59.05
-57.41
-54.99
-51.9
-48.11
-43.54
-38.24
-32.33
-26.03
-19.54
-12.98
-6.45
-0.05
6.07
11.67
16.45
20.15
22.66
24.04
24.61
24.81
25.12
25.87
27.17
28.87
30.61
31.91
32.28
31.36
29.03
25.44
21.02
16.4
12.17
8.73
6.2
4.4
3.04
1.79
0.42
-1.23
-3.24
-5.62
-8.32
-11.2
-14.08
-16.74
-19.06
-21.03
-22.72
-24.36
-26.14
-28.25
-30.73
-33.45
-36.08
-38.1
-39
-38.36
-36.08
-32.35
-27.58
-22.23
-16.64
-10.96
-5.18
0.73
6.77
12.8
18.59
23.84
28.24
31.57
33.7
34.65
34.61
33.92
32.96
32.09
31.51
31.2
30.98
30.62
29.93
28.84
27.38
25.62
23.61
21.4
19.06
16.69
14.42
12.39
10.64
9.11
7.69
6.19
4.52
2.69
0.8
-1.05
-2.76
-4.35
-5.99
-7.92
-10.31
-13.23
-16.53
-19.8
-22.54
-24.24
-24.62
-23.69
-21.71
-19.03
-15.95
-12.6
-8.99
-5.12
-1.08
2.93
6.62
9.72
12.07
13.62
14.44
14.7
14.56
14.18
13.67
13.07
12.38
11.54
10.53
9.4
8.25
7.19
6.28
5.5
4.67
3.57
2.01
-0.07
-2.44
-4.69
-6.22
-6.55
-5.42
-2.88
0.82
5.4
10.69
16.71
23.55
31.19
39.36
47.63
55.42
62.26
67.93
72.44
76.07
79.27
82.68
87.08
93.22
101.59
112.15
124.13
136.2
146.84
154.79
159.41
160.78
159.39
155.79
150.25
142.78
133.28
121.8
108.74
94.77
80.57
66.64
53.12
39.84
26.61
13.27
-0.07
-13.15
-25.72
-37.72
-49.34
-60.87
-72.57
-84.44
-96.17
-107.22
-117.04
-125.24
-131.7
-136.54
-140.05
-142.53
-144.19
-145.03
-144.8
-143.05
-139.25
-133.05
-124.46
-113.98
-102.55
-91.24
-81.08
-72.73
-66.48
-62.26
-59.73
-58.4
-57.69
-56.99
-55.71
-53.44
-50
-45.51
-40.35
-35.06
-30.18
-26
-22.52
-19.41
-16.03
-11.75
-6.12
0.88
8.81
16.85
24.01
29.41
32.54
33.32
32.08
29.38
25.83
21.96
18.18
14.78
12.01
9.99
8.68
7.89
7.25
6.43
5.2
3.56
1.74
0.02
-1.36
-2.33
-3.05
-3.78
-4.75
-6.12
-7.85
-9.81
-11.84
-13.7
-15.2
-16.07
-16.11
-15.15
-13.22
-10.51
-7.38
-4.19
-1.2
1.5
4.02
6.48
8.98
11.54
14.05
16.43
18.57
20.37
21.77
22.7
23.09
22.91
22.22
21.13
19.86
18.65
17.71
17.13
16.87
16.76
16.55
15.98
14.86
13.15
10.96
8.5
6.02
3.7
1.61
-0.3
-2.12
-3.96
-5.83
-7.72
-9.57
-11.3
-12.96
-14.56
-16.19
-17.93
-19.79
-21.73
-23.73
-25.8
-27.93
-30.1
-32.15
-33.79
-34.64
-34.39
-32.9
-30.31
-26.99
-23.35
-19.75
-16.3
-12.89
-9.34
-5.51
-1.43
2.61
6.2
8.9
10.41
10.75
10.23
9.35
8.63
8.4
8.75
9.48
10.35
11.07
11.5
11.61
11.42
10.96
10.22
9.22
7.98
6.61
5.25
3.98
2.87
1.85
0.86
-0.16
-1.2
-2.22
-3.15
-4.02
-4.91
-5.96
-7.32
-9.1
-11.31
-13.87
-16.58
-19.16
-21.3
-22.72
-23.21
-22.68
-21.18
-18.87
-15.96
-12.65
-9.1
-5.42
-1.67
2.15
5.99
9.71
13.15
16.11
18.41
19.95
20.71
20.79
20.38
19.69
18.97
18.39
18.04
17.85
17.72
17.53
17.24
16.94
16.68
16.47
16.2
15.7
14.85
13.64
12.19
10.71
9.36
8.18
7.12
6.05
4.89
3.56
2.08
0.53
-1.04
-2.54
-3.92
-5.2
-6.43
-7.74
-9.17
-10.65
-11.94
-12.68
-12.46
-11
-8.21
-4.23
0.66
6.11
11.84
17.68
23.55
29.43
35.3
41.11
46.79
52.27
57.51
62.49
67.06
70.94
73.7
74.93
74.41
72.26
68.89
64.79
60.33
55.58
50.44
44.8
38.71
32.44
26.38
20.82
15.88
11.54
7.66
4.13
0.87
-2.23
-5.32
-8.56
-12.03
-15.62
-19.01
-21.76
-23.56
-24.34
-24.33
-23.97
-23.76
-24.06
-25
-26.55
-28.56
-30.86
-33.27
-35.56
-37.43
-38.52
-38.55
-37.39
-35.17
-32.2
-28.95
-25.82
-22.99
-20.44
-17.96
-15.26
-12.2
-8.82
-5.27
-1.74
1.68
5.05
8.57
12.47
16.9
21.9
27.38
33.17
39.05
44.7
49.8
53.97
56.86
58.22
57.89
55.92
52.44
47.71
41.98
35.42
28.08
19.87
10.72
0.71
-9.81
-20.3
-30.17
-39.1
-47.17
-54.85
-62.8
-71.53
-81.24
-91.73
-102.55
-113.1
-122.7
-130.68
-136.29
-138.79
-137.58
-132.37
-123.26
-110.84
-95.99
-79.83
-63.58
-48.28
-34.77
-23.54
-14.68
-8
-3.12
0.33
2.67
4.1
4.77
4.84
4.58
4.29
4.19
4.33
4.51
4.43
3.77
2.45
0.67
-1.16
-2.55
-3.21
-3.12
-2.61
-2.14
-2.21
-3.11
-4.9
-7.48
-10.62
-14.1
-17.75
-21.35
-24.59
-27.04
-28.27
-27.99
-26.22
-23.27
-19.56
-15.46
-11.13
-6.55
-1.6
3.72
9.31
14.95
20.42
25.59
30.38
34.76
38.6
41.72
43.94
45.16
45.37
44.76
43.6
42.24
41.01
40.08
39.41
38.8
38.02
36.92
35.49
33.87
32.21
30.58
28.94
27.09
24.92
22.4
19.68
17
14.56
12.44
10.61
8.92
7.22
5.43
3.55
1.68
-0.06
-1.55
-2.79
-3.89
-5.01
-6.37
-8.14
-10.41
-13.12
-16.06
-18.9
-21.22
-22.6
-22.74
-21.54
-19.13
-15.83
-12.1
-8.31
-4.73
-1.49
1.42
4.04
6.38
8.34
9.82
10.72
11.05
10.96
10.66
10.32
10.05
9.79
9.41
8.83
8.05
7.18
6.38
5.73
5.16
4.53
3.7
2.56
1.18
-0.35
-1.92
-3.51
-5.15
-6.9
-8.79
-10.79
-12.83
-14.8
-16.61
-18.26
-19.79
-21.35
-23.08
-25.01
-27.1
-29.09
-30.61
-31.29
-30.84
-29.17
-26.36
-22.67
-18.41
-13.95
-9.59
-5.54
-1.93
1.24
4.01
6.45
8.59
10.4
11.82
12.75
13.12
12.94
12.27
11.26
10.08
8.89
7.79
6.76
5.72
4.56
3.22
1.73
0.12
-1.55
-3.28
-5.05
-6.72
-8.01
-8.53
-7.9
-5.91
-2.63
1.58
6.29
11.09
15.74
20.17
24.34
28.21
31.58
34.19
35.73
35.92
34.61
31.79
27.65
22.62
17.31
12.29
7.98
4.48
1.63
-0.89
-3.34
-5.8
-8.22
-10.47
-12.5
-14.29
-15.88
-17.22
-18.22
-18.78
-18.88
-18.6
-18.1
-17.49
-16.82
-16.03
-15.08
-13.95
-12.71
-11.44
-10.28
-9.34
-8.7
-8.41
-8.44
-8.72
-9.16
-9.7
-10.35
-11.19
-12.26
-13.55
-14.98
-16.32
-17.41
-18.16
-18.64
-19.08
-19.71
-20.68
-21.94
-23.21
-24.06
-24.02
-22.74
-20.09
-16.22
-11.45
-6.23
-0.96
4.01
8.52
12.46
15.83
18.63
20.85
22.42
23.21
23.16
22.25
20.58
18.37
15.9
13.45
11.21
9.29
7.74
6.58
5.89
5.73
6.17
7.17
8.59
10.13
11.53
12.59
13.3
13.78
14.29
15.09
16.33
18
19.9
21.76
23.28
24.32
24.95
25.43
26.13
27.33
29.12
31.32
33.6
35.6
37.06
37.95
38.46
39.03
40.29
43.01
47.8
54.88
63.69
72.87
80.5
84.74
84.43
79.47
70.77
59.8
48.06
36.62
26.02
16.42
7.84
0.29
-6.19
-11.56
-15.85
-19.19
-21.73
-23.6
-24.98
-25.98
-26.74
-27.4
-28.05
-28.8
-29.7
-30.66
-31.49
-31.94
-31.79
-30.98
-29.7
-28.28
-27.13
-26.53
-26.57
-27.21
-28.35
-29.93
-31.87
-34.07
-36.29
-38.27
-39.88
-41.23
-42.71
-44.94
-48.41
-53.32
-59.51
-66.42
-73.38
-79.78
-85.12
-89.1
-91.55
-92.37
-91.55
-89.13
-85.23
-80.05
-73.84
-66.91
-59.57
-52.18
-44.99
-38.15
-31.7
-25.53
-19.52
-13.62
-7.81
-2.18
3.15
8.09
12.53
16.37
19.54
22.01
23.85
25.18
26.19
26.99
27.61
28.01
28.07
27.75
27.11
26.28
25.39
24.5
23.62
22.7
21.69
20.56
19.31
17.85
16.13
14
11.37
8.21
4.63
0.86
-2.82
-6.19
-9.15
-11.72
-14.01
-16.07
-17.88
-19.25
-19.91
-19.57
-18.07
-15.43
-11.88
-7.79
-3.58
0.37
3.79
6.56
8.67
10.2
11.25
11.94
12.39
12.71
12.96
13.19
13.42
13.68
13.96
14.22
14.36
14.31
14.08
13.73
13.41
13.27
13.38
13.65
13.96
14.11
14.02
13.7
13.22
12.62
11.9
11
9.85
8.49
7
5.5
4.12
2.93
1.96
1.15
0.41
-0.43
-1.55
-3.14
-5.27
-7.84
-10.55
-12.94
-14.58
-15.21
-14.81
-13.57
-11.81
-9.8
-7.69
-5.58
-3.44
-1.31
0.76
2.68
4.38
5.83
7.03
8
8.71
9.08
9.03
8.54
7.73
6.83
6.06
5.57
5.38
5.35
5.32
5.22
5.04
4.82
4.56
4.17
3.55
2.69
1.66
0.58
-0.43
-1.41
-2.45
-3.68
-5.18
-6.88
-8.66
-10.41
-12.14
-13.92
-15.86
-18.05
-20.46
-22.9
-25.04
-26.51
-26.97
-26.23
-24.37
-21.64
-18.42
-15.03
-11.66
-8.33
-4.96
-1.51
1.99
5.46
8.74
11.72
14.29
16.39
17.95
18.91
19.26
19.09
18.56
17.87
17.18
16.55
15.93
15.24
14.44
13.54
12.59
11.63
10.63
9.47
8.07
6.41
4.62
2.87
1.32
0.03
-1.09
-2.2
-3.45
-4.92
-6.58
-8.27
-9.87
-11.35
-12.83
-14.53
-16.61
-19.06
-21.65
-23.93
-25.45
-25.85
-25.04
-23.16
-20.46
-17.21
-13.65
-9.91
-6.08
-2.23
1.53
5.08
8.31
11.12
13.47
15.32
16.7
17.62
18.17
18.44
18.59
18.75
18.99
19.25
19.34
19.02
18.12
16.61
14.64
12.4
10.03
7.59
5.12
2.7
0.52
-1.22
-2.45
-3.28
-4.03
-5.04
-6.51
-8.4
-10.48
-12.46
-14.19
-15.68
-17.07
-18.56
-20.29
-22.38
-24.88
-27.72
-30.74
-33.61
-35.92
-37.27
-37.4
-36.33
-34.28
-31.61
-28.56
-25.22
-21.44
-16.95
-11.54
-5.2
1.92
9.43
16.89
23.83
29.88
34.8
38.55
41.2
42.9
43.83
44.07
43.7
42.85
41.67
40.31
38.87
37.27
35.37
33.01
30.16
27.01
23.83
20.87
18.18
15.68
13.19
10.67
8.21
6
4.21
2.89
1.95
1.2
0.57
0
-0.5
-0.94
-1.43
-2.1
-3.13
-4.7
-6.87
-9.56
-12.55
-15.47
-17.83
-19.21
-19.33
-18.2
-16.03
-13.17
-9.98
-6.69
-3.41
-0.19
2.86
5.63
7.85
9.34
9.99
9.84
9.16
8.26
7.45
6.86
6.48
6.15
5.74
5.24
4.74
4.39
4.26
4.31
4.36
4.28
4.03
3.65
3.25
2.86
2.41
1.73
0.7
-0.73
-2.43
-4.23
-5.95
-7.44
-8.73
-9.86
-11
-12.28
-13.86
-15.79
-18.1
-20.69
-23.28
-25.54
-27.11
-27.7
-27.19
-25.61
-23.11
-19.89
-16.15
-12.09
-7.86
-3.62
0.54
4.49
8.15
11.44
14.27
16.54
18.22
19.29
19.87
20.12
20.22
20.31
20.44
20.63
20.8
20.89
20.85
20.63
20.19
19.49
18.48
17.17
15.61
13.89
12.23
10.77
9.61
8.68
7.82
6.8
5.49
3.82
1.9
-0.13
-2.09
-3.94
-5.68
-7.43
-9.23
-11.07
-12.91
-14.71
-16.53
-18.46
-20.58
-22.82
-24.98
-26.67
-27.55
-27.34
-25.97
-23.52
-20.18
-16.19
-11.76
-7.09
-2.4
2.1
6.25
9.92
13.06
15.64
17.68
19.25
20.48
21.52
22.5
23.5
24.51
25.39
25.97
26.12
25.79
25.04
23.96
22.65
21.15
19.47
17.63
15.72
13.88
12.27
10.96
9.9
8.92
7.86
6.61
5.25
3.93
2.79
1.89
1.14
0.42
-0.42
-1.46
-2.78
-4.41
-6.41
-8.81
-11.65
-14.85
-18.28
-21.77
-25.11
-28.11
-30.55
-32.26
-33.1
-33
-32.05
-30.37
-28.16
-25.53
-22.59
-19.41
-16.13
-12.89
-9.87
-7.19
-4.87
-2.89
-1.21
0.14
1.13
1.76
2.15
2.49
2.94
3.6
4.41
5.25
5.97
6.51
6.85
6.97
6.83
6.35
5.6
4.73
3.99
3.56
3.5
3.67
3.87
3.97
3.88
3.66
3.33
2.88
2.31
1.63
0.91
0.26
-0.34
-1
-1.88
-3.16
-4.83
-6.72
-8.57
-10.2
-11.5
-12.44
-12.99
-13.01
-12.31
-10.7
-8.15
-4.76
-0.8
3.42
7.64
11.65
15.32
18.55
21.28
23.45
25.04
26.04
26.51
26.57
26.38
26.14
25.96
25.89
25.84
25.64
25.14
24.22
22.96
21.52
20.13
18.93
17.93
17.04
16.08
14.93
13.55
12
10.38
8.72
6.98
5.12
3.1
0.98
-1.1
-3.01
-4.71
-6.35
-8.18
-10.46
-13.32
-16.58
-19.84
-22.59
-24.43
-25.11
-24.63
-23.13
-20.81
-17.87
-14.5
-10.88
-7.17
-3.49
0.05
3.38
6.42
9.01
10.96
12.06
12.24
11.62
10.47
9.14
7.86
6.77
5.81
4.91
4.01
3.12
2.26
1.38
0.37
-0.9
-2.48
-4.23
-5.88
-7.12
-7.77
-7.89
-7.74
-7.69
-8
-8.74
-9.8
-10.95
-11.99
-12.8
-13.38
-13.77
-14.1
-14.54
-15.24
-16.37
-17.93
-19.8
-21.68
-23.17
-23.92
-23.68
-22.4
-20.18
-17.21
-13.75
-10.05
-6.33
-2.74
0.71
4.01
7.18
10.13
12.74
14.82
16.25
17.06
17.43
17.6
17.79
18.09
18.44
18.77
18.97
19.07
19.15
19.34
19.65
20
20.18
20.03
19.44
18.43
17.12
15.68
14.16
12.57
10.86
8.98
6.96
4.9
2.93
1.14
-0.43
-1.85
-3.26
-4.8
-6.55
-8.53
-10.68
-12.94
-15.19
-17.31
-19.07
-20.18
-20.38
-19.54
-17.74
-15.29
-12.58
-9.86
-7.2
-4.44
-1.44
1.84
5.2
8.34
10.94
12.87
14.15
14.87
15.11
14.89
14.18
13.04
11.64
10.28
9.25
8.69
8.57
8.67
8.73
8.55
8.1
7.45
6.72
5.96
5.12
4.09
2.75
1.1
-0.78
-2.69
-4.42
-5.82
-6.79
-7.36
-7.64
-7.85
-8.38
-9.64
-11.99
-15.52
-20.01
-24.85
-29.25
-32.52
-34.21
-34.29
-33.04
-30.9
-28.27
-25.46
-22.53
-19.47
-16.26
-12.98
-9.89
-7.3
-5.54
-4.78
-4.91
-5.61
-6.47
-7.13
-7.46
-7.52
-7.43
-7.3
-7.1
-6.74
-6.18
-5.52
-4.95
-4.68
-4.83
-5.31
-5.91
-6.35
-6.33
-5.7
-4.31
-2.15
0.74
4.2
8
11.89
15.69
19.3
22.74
26.03
29.12
31.83
33.86
34.92
34.83
33.61
31.45
28.65
25.58
22.61
20.05
18.19
17.25
17.3
18.22
19.71
21.3
22.46
22.74
21.91
19.96
17.16
13.94
10.69
7.69
4.99
2.41
-0.33
-3.46
-6.97
-10.56
-13.76
-16.06
-17.17
-17.12
-16.3
-15.19
-14.23
-13.53
-12.85
-11.75
-9.76
-6.66
-2.58
2.13
6.96
11.51
15.52
18.91
21.71
24.02
25.92
27.45
28.71
29.77
30.8
32.02
33.7
36.02
39.02
42.58
46.4
50.26
54.09
58.06
62.42
67.23
72.18
76.71
80.1
81.76
81.21
77.93
71.12
59.83
43.31
21.62
-3.96
-30.95
-56.33
-77.47
-92.88
-102.47
-107.2
-108.45
-107.4
-104.84
-101.3
-97.3
-93.58
-90.95
-90.02
-90.94
-93.29
-96.27
-98.98
-100.76
-101.23
-100.33
-98.09
-94.53
-89.62
-83.39
-75.96
-67.6
-58.7
-49.61
-40.62
-31.88
-23.47
-15.4
-7.69
-0.36
6.58
13.09
19.08
24.37
28.67
31.72
33.34
33.58
32.7
31.05
28.89
26.3
23.08
18.96
13.75
7.42
0.27
-7.19
-14.33
-20.54
-25.36
-28.57
-30.27
-30.78
-30.55
-30.02
-29.38
-28.65
-27.68
-26.31
-24.51
-22.43
-20.32
-18.45
-16.93
-15.73
-14.72
-13.71
-12.55
-11.13
-9.42
-7.45
-5.36
-3.26
-1.23
0.84
3.31
6.6
11.11
16.91
23.67
30.69
37.16
42.4
46.09
48.27
49.29
49.61
49.71
49.93
50.51
51.49
52.72
53.84
54.36
53.8
51.81
48.31
43.53
37.98
32.29
27.08
22.86
19.96
18.49
18.26
18.95
20.15
21.51
22.85
24.16
25.59
27.26
29.17
31.15
32.88
34.04
34.39
33.89
32.7
31.11
29.48
28.13
27.31
27.11
27.52
28.42
29.6
30.86
32.03
33
33.8
34.47
35.09
35.66
36.1
36.27
36.14
35.85
35.7
36.08
37.29
39.28
41.64
43.69
44.62
43.84
41.09
36.46
30.45
23.78
17.25
11.57
7.08
3.51
-0.12
-5.41
-14.14
-27.67
-46.43
-69.63
-95.32
-121.02
-144.29
-163.36
-177.27
-185.67
-188.51
-185.81
-177.56
-163.96
-145.69
-123.97
-100.55
-77.33
-55.93
-37.42
-22.17
-10.08
-0.78
6.04
10.64
13.25
14.13
13.72
12.54
11.02
9.45
7.83
6
3.72
0.85
-2.61
-6.5
-10.62
-14.84
-19.14
-23.59
-28.29
-33.19
-38.03
-42.49
-46.27
-49.28
-51.74
-54.06
-56.56
-59.3
-61.92
-63.81
-64.32
-63.06
-60.08
-55.8
-50.85
-45.81
-40.93
-36
-30.41
-23.27
-13.76
-1.28
14.29
32.49
52.38
72.63
91.76
108.38
121.44
130.51
135.88
138.41
139.25
139.33
139.06
138.27
136.43
133.08
128.17
122.1
115.53
109.04
102.85
96.88
90.9
84.77
78.59
72.59
66.97
61.78
56.99
52.53
48.42
44.67
41.13
37.39
32.78
26.77
19.16
10.41
1.44
-6.64
-12.94
-17
-18.86
-18.91
-17.77
-16.26
-15.26
-15.57
-17.61
-21.13
-25.25
-28.65
-30.07
-28.74
-24.73
-18.94
-12.76
-7.64
-4.6
-4.01
-5.53
-8.3
-11.35
-13.95
-15.82
-17.09
-18.11
-19.2
-20.36
-21.37
-21.93
-21.84
-21.16
-20.08
-18.81
-17.47
-16.01
-14.42
-12.78
-11.32
-10.38
-10.25
-11
-12.44
-14.08
-15.42
-16.02
-15.65
-14.4
-12.48
-10.2
-7.79
-5.34
-2.87
-0.39
1.94
3.89
5.23
5.87
5.98
5.9
5.98
6.44
7.31
8.49
9.85
11.35
13.01
14.81
16.73
18.63
20.39
21.93
23.21
24.17
24.65
24.48
23.51
21.77
19.47
16.95
14.54
12.47
10.82
9.57
8.62
7.83
7.01
5.97
4.53
2.61
0.27
-2.33
-4.97
-7.49
-9.82
-12
-14.12
-16.24
-18.39
-20.58
-22.71
-24.75
-26.62
-28.31
-29.84
-31.3
-32.81
-34.43
-36.2
-38.01
-39.69
-41
-41.74
-41.79
-41.07
-39.62
-37.46
-34.66
-31.27
-27.38
-23.15
-18.75
-14.31
-9.9
-5.53
-1.14
3.24
7.53
11.5
14.91
17.6
19.45
20.52
20.93
20.8
20.2
19.19
17.86
16.36
14.9
13.7
12.84
12.22
11.65
10.88
9.79
8.4
6.87
5.39
4.07
2.92
1.87
0.87
-0.13
-1.18
-2.25
-3.32
-4.26
-4.85
-4.85
-4.11
-2.69
-0.91
0.74
1.78
1.89
1.03
-0.63
-2.77
-5.04
-7.09
-8.64
-9.47
-9.44
-8.58
-7.06
-5.21
-3.42
-2.03
-1.27
-1.2
-1.7
-2.54
-3.43
-4.15
-4.55
-4.58
-4.27
-3.72
-3.12
-2.74
-2.84
-3.63
-5.12
-6.99
-8.72
-9.64
-9.29
-7.58
-4.82
-1.57
1.63
4.44
6.84
8.92
10.7
12.05
12.67
12.38
11.18
9.42
7.62
6.28
5.66
5.62
5.81
5.81
5.41
4.63
3.7
2.84
2.13
1.48
0.68
-0.36
-1.59
-2.79
-3.76
-4.4
-4.86
-5.38
-6.14
-7.16
-8.21
-9
-9.31
-9.12
-8.64
-8.17
-7.93
-8.01
-8.39
-8.95
-9.6
-10.34
-11.16
-12.09
-13.14
-14.32
-15.66
-17.22
-18.97
-20.81
-22.51
-23.79
-24.36
-24.05
-22.81
-20.72
-17.87
-14.39
-10.37
-5.94
-1.24
3.56
8.33
12.88
17.02
20.56
23.31
25.13
26
26.07
25.53
24.5
22.97
20.78
17.81
14.07
9.91
5.84
2.39
-0.1
-1.66
-2.52
-3.05
-3.48
-3.92
-4.25
-4.4
-4.29
-3.99
-3.59
-3.18
-2.88
-2.77
-2.92
-3.35
-4.02
-4.76
-5.41
-5.83
-6.02
-6.19
-6.61
-7.51
-8.93
-10.68
-12.41
-13.73
-14.45
-14.59
-14.38
-14.09
-13.86
-13.6
-13.07
-12.03
-10.41
-8.41
-6.36
-4.69
-3.63
-3.21
-3.26
-3.56
-3.93
-4.34
-4.8
-5.29
-5.71
-5.88
-5.65
-5.02
-4.12
-3.2
-2.44
-1.93
-1.56
-1.15
-0.57
0.11
0.56
0.39
-0.77
-2.94
-5.85
-8.9
-11.4
-12.78
-12.78
-11.48
-9.22
-6.5
-3.83
-1.62
-0.14
0.53
0.43
-0.19
-1.06
-1.87
-2.47
-2.85
-3.11
-3.4
-3.76
-4.17
-4.48
-4.56
-4.33
-3.84
-3.18
-2.52
-2.05
-1.88
-2.09
-2.61
-3.3
-3.92
-4.23
-4.1
-3.5
-2.6
-1.55
-0.49
0.61
1.86
3.39
5.23
7.26
9.26
10.96
12.1
12.53
12.15
10.97
9.05
6.54
3.68
0.71
-2.14
-4.74
-7.09
-9.32
-11.57
-13.95
-16.4
-18.8
-20.98
-22.78
-24.06
-24.74
-24.75
-24.08
-22.84
-21.23
-19.53
-17.99
-16.7
-15.63
-14.59
-13.42
-12.06
-10.59
-9.19
-8.04
-7.22
-6.65
-6.21
-5.72
-5.09
-4.29
-3.42
-2.59
-1.94
-1.57
-1.44
-1.52
-1.72
-2.04
-2.49
-3.18
-4.18
-5.44
-6.86
-8.21
-9.22
-9.67
-9.42
-8.42
-6.69
-4.26
-1.12
2.7
7.05
11.58
15.78
19.11
21.22
21.97
21.56
20.39
18.89
17.53
16.58
16.19
16.35
16.93
17.71
18.52
19.25
19.96
20.73
21.59
22.4
22.85
22.64
21.6
19.83
17.61
15.26
12.96
10.71
8.41
5.96
3.36
0.71
-1.95
-4.61
-7.35
-10.21
-13.19
-16.12
-18.78
-20.93
-22.36
-22.98
-22.75
-21.8
-20.32
-18.64
-17.16
-16.31
-16.44
-17.69
-19.95
-22.84
-25.82
-28.31
-29.84
-30.26
-29.73
-28.62
-27.34
-26.09
-24.8
-23.18
-20.81
-17.35
-12.69
-7.06
-0.89
5.3
11.09
16.39
21.39
26.53
32.11
38.17
44.37
50.01
54.21
56.13
55.1
50.89
43.71
34.37
24.12
14.4
6.4
0.7
-2.8
-4.8
-6.14
-7.46
-9.05
-10.84
-12.67
-14.44
-16.12
-17.72
-19.14
-20.17
-20.47
-19.78
-17.99
-15.26
-12.02
-8.88
-6.47
-5.32
-5.67
-7.45
-10.31
-13.68
-17.03
-19.89
-22.08
-23.59
-24.58
-25.23
-25.62
-25.68
-25.22
-24.01
-21.91
-18.85
-14.92
-10.32
-5.4
-0.53
3.81
7.24
9.49
10.56
10.68
10.31
9.97
10.16
11.12
12.88
15.24
17.86
20.41
22.62
24.35
25.5
26.06
26.03
25.45
24.44
23.17
21.79
20.41
19.01
17.53
15.9
14.11
12.23
10.31
8.37
6.32
4.01
1.3
-1.85
-5.37
-9.06
-12.63
-15.7
-17.88
-18.8
-18.24
-16.2
-13
-9.06
-4.86
-0.64
3.53
7.71
11.89
15.9
19.43
22.16
23.99
25.01
25.48
25.65
25.61
25.36
24.86
24.14
23.35
22.65
22.12
21.68
21.16
20.36
19.23
17.86
16.42
15.04
13.74
12.38
10.79
8.93
6.89
4.95
3.36
2.21
1.37
0.48
-0.86
-2.97
-6.04
-10.18
-15.46
-21.87
-29.22
-37
-44.44
-50.59
-54.68
-56.36
-55.76
-53.38
-49.85
-45.71
-41.24
-36.63
-31.95
-27.29
-22.73
-18.32
-14.03
-9.83
-5.71
-1.69
2.14
5.72
9.05
12.2
15.27
18.33
21.35
24.18
26.7
28.76
30.27
31.2
31.51
31.13
29.99
28.03
25.3
22.02
18.58
15.44
12.91
11.04
9.53
7.85
5.45
1.98
-2.56
-7.85
-13.46
-19
-24.19
-28.77
-32.49
-34.95
-35.79
-34.78
-32.01
-27.9
-23.04
-18.04
-13.18
-8.49
-3.75
1.26
6.56
11.88
16.66
20.34
22.49
23.02
22.19
20.53
18.59
16.85
15.56
14.8
14.5
14.59
14.95
15.47
15.97
16.24
16.04
15.27
13.92
12.22
10.43
8.81
7.42
6.16
4.73
2.81
0.21
-3.09
-6.9
-10.93
-14.91
-18.63
-21.87
-24.38
-25.87
-26.05
-24.7
-21.78
-17.48
-12.2
-6.46
-0.74
4.6
9.39
13.61
17.32
20.55
23.23
25.17
26.18
26.11
25
23.09
20.79
18.6
16.89
15.9
15.59
15.66
15.68
15.23
14.01
12.01
9.54
7.19
5.67
5.53
6.88
9.19
11.42
12.41
11.34
8.14
3.62
-0.8
-3.5
-3.13
0.91
8.33
17.97
28.07
36.75
42.65
45.27
45.08
43.26
41.2
39.96
40.04
41.43
43.84
46.91
50.29
53.58
56.29
57.84
57.74
55.79
52.2
47.57
42.75
38.55
35.56
33.91
33.35
33.34
33.36
33.11
32.56
31.9
31.25
30.64
29.91
28.86
27.39
25.66
24.03
22.94
22.78
23.74
25.71
28.3
31.01
33.29
34.68
34.9
33.9
31.77
28.74
25.1
21.18
17.33
13.85
10.89
8.39
6.05
3.42
0.14
-3.94
-8.68
-13.82
-19.09
-24.27
-29.18
-33.57
-37.16
-39.73
-41.28
-42.09
-42.65
-43.39
-44.55
-45.98
-47.4
-48.4
-48.77
-48.45
-47.61
-46.53
-45.56
-44.94
-44.81
-45.05
-45.32
-45.19
-44.34
-42.65
-40.28
-37.54
-34.81
-32.46
-30.78
-29.91
-29.76
-29.98
-29.9
-28.81
-26.12
-21.69
-15.85
-9.24
-2.52
3.94
10.11
16.18
22.31
28.36
33.83
38.03
40.34
40.49
38.73
35.69
32.23
28.99
26.2
23.69
21.06
17.98
14.46
10.79
7.42
4.62
2.44
0.69
-0.79
-2.01
-2.79
-2.85
-2.01
-0.36
1.81
4.09
6.12
7.8
9.18
10.54
12.14
14.11
16.4
18.74
20.78
22.14
22.69
22.56
22.21
22.25
23.2
25.22
28
30.73
32.39
32.03
29.13
23.74
16.4
7.9
-1.02
-9.93
-18.75
-27.64
-36.79
-46.26
-55.79
-64.84
-72.7
-78.55
-81.7
-81.73
-78.57
-72.55
-64.36
-54.93
-45.29
-36.38
-28.88
-23.16
-19.33
-17.21
-16.51
-16.97
-18.43
-20.83
-24.24
-28.65
-33.84
-39.3
-44.19
-47.57
-48.71
-47.32
-43.77
-38.95
-33.97
-29.8
-27.04
-25.77
-25.76
-26.55
-27.61
-28.47
-28.64
-27.75
-25.66
-22.54
-18.84
-15.15
-11.99
-9.55
-7.68
-5.97
-4.05
-1.74
0.82
3.27
5.2
6.3
6.57
6.22
5.75
5.74
6.73
9
12.45
16.58
20.59
23.69
25.31
25.35
24.05
21.94
19.56
17.25
15.18
13.37
11.87
10.75
10.12
10.01
10.28
10.59
10.51
9.76
8.28
6.34
4.38
2.79
1.7
0.86
-0.18
-1.94
-4.68
-8.29
-12.31
-16.14
-19.24
-21.33
-22.39
-22.53
-21.85
-20.37
-18.04
-14.82
-10.84
-6.39
-1.9
2.23
5.7
8.39
10.3
11.51
12.13
12.25
12
11.49
10.84
10.13
9.45
8.83
8.25
7.72
7.19
6.67
6.13
5.56
4.94
4.21
3.29
2.08
0.51
-1.37
-3.37
-5.18
-6.4
-6.72
-5.97
-4.22
-1.73
1.13
4.07
6.91
9.6
12.16
14.57
16.71
18.35
19.3
19.49
19.01
18.14
17.16
16.28
15.52
14.83
14.12
13.37
12.64
11.97
11.4
10.87
10.34
9.76
9.19
8.69
8.34
8.13
8.01
7.91
7.79
7.61
7.35
6.96
6.39
5.61
4.65
3.52
2.24
0.77
-0.97
-3.04
-5.4
-7.86
-10.18
-12.15
-13.7
-14.9
-15.97
-17.14
-18.58
-20.37
-22.54
-25.06
-27.83
-30.71
-33.43
-35.6
-36.9
-37.06
-35.98
-33.76
-30.58
-26.68
-22.25
-17.44
-12.39
-7.27
-2.26
2.46
6.76
10.54
13.72
16.25
18.08
19.22
19.75
19.8
19.54
19.14
18.71
18.31
17.9
17.44
16.9
16.26
15.55
14.77
13.9
12.99
12.03
11.03
9.96
8.75
7.34
5.71
3.93
2.17
0.65
-0.51
-1.31
-1.9
-2.47
-3.2
-4.09
-5.07
-6.03
-6.97
-8.01
-9.32
-11.01
-13.01
-15.07
-16.82
-17.94
-18.22
-17.6
-16.19
-14.15
-11.6
-8.64
-5.35
-1.83
1.71
5.03
7.89
10.1
11.66
12.65
13.23
13.44
13.31
12.79
11.87
10.7
9.48
8.43
7.62
6.96
6.28
5.4
4.3
3.06
1.8
0.55
-0.8
-2.42
-4.45
-6.86
-9.52
-12.15
-14.51
-16.42
-17.79
-18.6
-18.87
-18.65
-18.06
-17.31
-16.63
-16.26
-16.34
-16.9
-17.84
-18.94
-19.88
-20.35
-20.05
-18.84
-16.77
-14.06
-11.05
-8.05
-5.26
-2.65
-0.1
2.54
5.23
7.8
9.96
11.42
12.06
11.97
11.37
10.5
9.53
8.52
7.43
6.2
4.82
3.33
1.82
0.36
-0.99
-2.23
-3.45
-4.77
-6.34
-8.26
-10.54
-13.01
-15.36
-17.2
-18.13
-17.88
-16.36
-13.72
-10.28
-6.45
-2.59
1.13
4.65
7.98
11.04
13.66
15.59
16.65
16.87
16.54
16.05
15.77
15.81
16.07
16.33
16.44
16.45
16.55
16.9
17.53
18.27
18.82
18.92
18.44
17.47
16.22
14.9
13.63
12.46
11.37
10.26
9.12
7.93
6.73
5.57
4.5
3.53
2.57
1.53
0.32
-1.15
-2.9
-4.92
-7.12
-9.4
-11.62
-13.66
-15.45
-17.03
-18.53
-20.16
-22.14
-24.55
-27.32
-30.26
-33.07
-35.43
-37.05
-37.7
-37.16
-35.32
-32.15
-27.84
-22.64
-16.93
-11.05
-5.26
0.27
5.42
10.07
14.1
17.4
19.92
21.67
22.73
23.18
23.11
22.67
22.01
21.29
20.6
19.99
19.38
18.7
17.86
16.88
15.84
14.77
13.7
12.58
11.36
10.05
8.74
7.52
6.45
5.51
4.56
3.44
2
0.19
-1.97
-4.33
-6.71
-8.95
-11.01
-12.97
-15.04
-17.38
-20.04
-22.88
-25.55
-27.61
-28.62
-28.28
-26.53
-23.46
-19.37
-14.59
-9.45
-4.22
0.91
5.84
10.42
14.46
17.72
19.96
21.09
21.19
20.49
19.28
17.82
16.26
14.68
13.18
11.81
10.65
9.69
8.82
7.86
6.66
5.19
3.54
1.86
0.31
-1.04
-2.2
-3.29
-4.46
-5.85
-7.6
-9.82
-12.49
-15.5
-18.57
-21.38
-23.62
-25.22
-26.35
-27.35
-28.61
-30.28
-32.19
-33.85
-34.67
-34.15
-32.11
-28.72
-24.33
-19.33
-13.95
-8.26
-2.24
4.13
10.66
17.01
22.72
27.42
30.93
33.33
34.86
35.83
36.44
36.74
36.72
36.42
35.97
35.53
35.27
35.2
35.23
35.18
34.89
34.33
33.61
32.87
32.25
31.76
31.25
30.45
28.92
26.31
22.36
17.08
10.73
3.73
-3.43
-10.39
-16.99
-23.18
-28.93
-34.21
-38.93
-42.99
-46.4
-49.16
-51.28
-52.64
-53.06
-52.37
-50.5
-47.51
-43.6
-38.98
-33.8
-28.16
-22.11
-15.82
-9.48
-3.42
2.09
6.84
10.72
13.75
16.01
17.67
18.9
19.87
20.61
21.13
21.33
21.2
20.76
20.08
19.2
18.09
16.66
14.84
12.66
10.28
7.9
5.68
3.64
1.58
-0.79
-3.74
-7.36
-11.49
-15.77
-19.77
-23.11
-25.59
-27.24
-28.27
-29.05
-30.05
-31.66
-34.26
-38
-42.83
-48.45
-54.26
-59.47
-63.25
-64.97
-64.39
-61.81
-57.88
-53.43
-49.11
-45.17
-41.44
-37.44
-32.52
-26.03
-17.47
-6.58
6.5
21.1
36.04
49.74
60.51
66.98
68.45
65.1
58.04
49.03
39.99
32.54
27.42
24.25
21.53
17.05
8.71
-4.57
-22.24
-41.81
-59.54
-71.59
-75.34
-70.21
-57.61
-40.3
-21.39
-3.74
10.28
18.79
20.59
15.63
5.39
-7.49
-20.27
-31.54
-41.72
-52.43
-64.76
-77.71
-87.78
-90.29
-81.65
-61.2
-31.64
2.26
35.66
65.34
90.25
110.96
128.62
144.01
157.23
167.82
175.13
178.53
177.76
172.85
164.1
151.98
137.07
120.07
101.83
83.37
65.76
49.93
36.45
25.35
16.11
7.93
0.05
-7.98
-16.14
-23.99
-30.87
-36.18
-39.61
-41.21
-41.44
-40.91
-40.19
-39.62
-39.27
-39.03
-38.76
-38.38
-37.96
-37.53
-37.07
-36.41
-35.23
-33.23
-30.22
-26.18
-21.25
-15.61
-9.44
-2.78
4.34
11.9
19.8
27.89
35.98
43.89
51.53
58.89
65.97
72.79
79.3
85.39
90.81
95.2
98.08
99.03
97.84
94.71
90.34
85.94
82.91
82.51
85.43
91.48
99.6
108.14
115.44
120.3
122.38
122.12
120.46
118.35
116.49
115.19
114.46
114.13
113.84
112.93
110.39
104.94
95.32
80.75
61.28
37.95
12.56
-12.79
-36.09
-55.84
-71.13
-81.67
-87.57
-89.16
-86.9
-81.28
-72.95
-62.74
-51.74
-41.28
-32.65
-26.8
-24.02
-23.89
-25.32
-26.94
-27.42
-25.77
-21.48
-14.49
-5.12
6.03
18.07
29.82
39.84
46.65
48.96
45.98
37.74
25.18
10.05
-5.36
-18.85
-28.89
-34.96
-37.58
-37.86
-36.92
-35.51
-34.02
-32.78
-32.44
-33.95
-38.21
-45.47
-54.97
-65
-73.63
-79.44
-82.02
-81.95
-80.23
-77.81
-75.18
-72.58
-70.16
-68.23
-67.28
-67.58
-68.97
-70.72
-71.89
-71.69
-69.93
-67.07
-63.87
-60.77
-57.38
-52.52
-44.79
-33.45
-18.99
-3.14
11.89
24.32
33.47
39.76
43.99
46.6
47.25
45.12
39.6
31.08
21.03
11.5
4.25
-0.19
-2.66
-4.98
-9
-15.73
-24.85
-34.79
-43.53
-49.46
-52.09
-52.25
-51.48
-51.27
-52.21
-53.63
-53.96
-51.55
-45.51
-36.21
-25.18
-14.35
-5.41
0.71
3.86
4.35
2.67
-0.67
-5.1
-9.96
-14.48
-18
-19.96
-20.01
-17.93
-13.64
-7.2
1.06
10.42
19.95
28.59
35.5
40.17
42.47
42.56
40.82
37.68
33.56
28.61
22.55
14.76
4.69
-7.69
-21.5
-35.11
-46.75
-55.32
-60.77
-64.03
-66.41
-68.85
-71.59
-74.28
-76.56
-78.5
-80.68
-83.88
-88.5
-94.33
-100.53
-106.07
-110.12
-112.33
-112.88
-112.32
-111.41
-110.83
-111.03
-112.02
-113.4
-114.44
-114.5
-113.35
-111.36
-109.34
-108.1
-107.88
-107.93
-106.58
-101.54
-90.49
-71.95
-46.07
-15
17.17
45.38
64.99
73.17
69.77
57.05
38.7
18.44
-0.89
-17.62
-30.94
-40.36
-45.55
-46.4
-43.3
-37.29
-29.79
-22.22
-15.49
-9.86
-4.94
-0.12
5.11
10.8
16.39
20.93
23.42
23.24
20.43
15.65
9.99
4.49
-0.13
-3.54
-5.62
-6.36
-5.69
-3.53
-0.01
4.47
9.3
13.92
18.03
21.78
25.49
29.44
33.55
37.41
40.45
42.27
42.85
42.49
41.63
40.55
39.29
37.76
35.93
33.9
31.91
30.18
28.72
27.4
25.97
24.18
21.9
19.14
16.03
12.8
9.74
7.14
5.15
3.78
2.8
1.91
0.78
-0.73
-2.61
-4.66
-6.66
-8.45
-9.99
-11.35
-12.7
-14.25
-16.25
-18.86
-22.11
-25.79
-29.48
-32.54
-34.34
-34.43
-32.62
-29.1
-24.31
-18.84
-13.16
-7.6
-2.25
2.93
7.91
12.57
16.6
19.68
21.54
22.14
21.69
20.53
19.13
17.9
17.16
17.04
17.54
18.48
19.61
20.68
21.51
22.04
22.27
22.24
21.93
21.29
20.24
18.76
16.88
14.69
12.27
9.68
6.94
4.1
1.14
-1.88
-5
-8.26
-11.66
-15.14
-18.46
-21.27
-23.14
-23.78
-23.09
-21.12
-18.12
-14.34
-10.01
-5.34
-0.51
4.28
8.84
13.03
16.71
19.83
22.35
24.22
25.38
25.78
25.47
24.55
23.21
21.69
20.17
18.8
17.61
16.51
15.37
14.05
12.38
10.28
7.72
4.74
1.49
-1.79
-4.76
-6.97
-7.93
-7.23
-4.71
-0.51
4.87
10.8
16.63
21.93
26.46
30.14
32.95
34.86
35.88
36.21
36.15
36.09
36.29
36.83
37.49
38
38.19
38.05
37.76
37.48
37.3
37.13
36.83
36.25
35.38
34.29
33.07
31.81
30.49
29.08
27.57
25.99
24.44
23
21.71
20.49
19.2
17.7
15.91
13.82
11.48
9.03
6.61
4.36
2.31
0.4
-1.49
-3.54
-5.87
-8.53
-11.44
-14.46
-17.4
-20.12
-22.44
-24.15
-24.91
-24.34
-22.06
-17.83
-11.73
-4.06
4.65
13.81
22.93
31.77
40.29
48.67
57.06
65.53
74
82.32
90.34
97.85
104.55
109.89
113.14
113.62
111.09
105.98
99.39
92.69
86.91
82.29
78.24
73.73
67.92
60.59
52.26
43.86
36.21
29.68
24.11
19.04
13.98
8.72
3.26
-2.27
-7.87
-13.72
-20.08
-27.13
-34.73
-42.39
-49.32
-54.74
-57.99
-58.76
-57.14
-53.56
-48.61
-42.92
-36.93
-30.87
-24.83
-18.86
-13.17
-8.15
-4.29
-1.93
-1.13
-1.52
-2.47
-3.34
-3.67
-3.41
-2.76
-1.99
-1.3
-0.7
-0.09
0.61
1.27
1.61
1.28
0.02
-2.17
-5
-8.01
-10.72
-12.88
-14.51
-15.86
-17.29
-19.13
-21.56
-24.57
-27.99
-31.52
-34.77
-37.41
-39.12
-39.7
-39.08
-37.33
-34.66
-31.35
-27.66
-23.81
-19.92
-16.06
-12.32
-8.84
-5.75
-3.17
-1.1
0.52
1.73
2.6
3.14
3.36
3.3
3.1
2.81
2.44
1.94
1.18
0.12
-1.23
-2.81
-4.61
-6.7
-9.18
-11.98
-14.79
-17.04
-18.03
-17.22
-14.45
-9.97
-4.37
1.69
7.68
13.31
18.55
23.46
28.02
32.12
35.53
38.07
39.65
40.4
40.53
40.27
39.77
39.13
38.4
37.69
37.12
36.74
36.42
35.81
34.46
32.03
28.48
24.09
19.36
14.88
11.04
7.93
5.37
2.94
0.11
-3.57
-8.32
-14.07
-20.44
-26.93
-33.01
-38.37
-42.92
-46.8
-50.25
-53.45
-56.5
-59.34
-61.8
-63.62
-64.51
-64.17
-62.35
-58.98
-54.16
-48.22
-41.69
-35.16
-29.21
-24.22
-20.36
-17.53
-15.54
-14.15
-13.17
-12.4
-11.62
-10.57
-9.06
-7.06
-4.78
-2.62
-0.94
0.1
0.65
1.07
1.71
2.75
4.09
5.46
6.54
7.19
7.42
7.36
7.11
6.63
5.82
4.49
2.61
0.33
-1.92
-3.65
-4.44
-4.13
-2.9
-1.12
0.82
2.73
4.65
6.76
9.24
12.06
15.01
17.69
19.72
20.83
20.99
20.33
19.16
17.82
16.61
15.8
15.55
15.97
17.06
18.76
20.92
23.25
25.4
26.95
27.58
27.11
25.63
23.39
20.72
17.97
15.37
13.02
10.95
9.11
7.45
5.88
4.27
2.49
0.35
-2.33
-5.71
-9.91
-14.85
-20.28
-25.67
-30.34
-33.58
-34.91
-34.17
-31.59
-27.69
-23.08
-18.34
-13.89
-10
-6.75
-4.07
-1.83
0.12
1.84
3.27
4.17
4.31
3.59
2.13
0.25
-1.65
-3.29
-4.6
-5.63
-6.5
-7.18
-7.55
-7.43
-6.67
-5.27
-3.38
-1.22
0.96
2.92
4.5
5.63
6.34
6.76
7.08
7.42
7.77
8.01
7.93
7.36
6.31
4.92
3.38
1.81
0.17
-1.7
-4
-6.84
-10.23
-14
-17.93
-21.78
-25.27
-28.13
-30.06
-30.85
-30.35
-28.63
-25.89
-22.43
-18.52
-14.33
-9.96
-5.48
-1.05
3.08
6.64
9.43
11.37
12.52
13.05
13.12
12.9
12.52
12.12
11.81
11.67
11.71
11.91
12.21
12.57
12.95
13.33
13.65
13.77
13.59
13.08
12.26
11.3
10.34
9.47
8.71
8.01
7.26
6.36
5.23
3.88
2.34
0.68
-1.08
-2.93
-4.91
-6.98
-9.08
-11.07
-12.85
-14.44
-15.99
-17.74
-19.85
-22.27
-24.66
-26.49
-27.22
-26.5
-24.23
-20.62
-16.06
-11.04
-6.04
-1.44
2.61
6.16
9.43
12.62
15.82
18.88
21.55
23.52
24.67
25.08
24.92
24.37
23.54
22.44
21.11
19.69
18.4
17.44
16.96
16.93
17.23
17.63
17.85
17.63
16.78
15.25
13.21
10.99
8.94
7.36
6.29
5.59
5
4.29
3.39
2.38
1.39
0.53
-0.21
-0.9
-1.68
-2.62
-3.8
-5.24
-6.91
-8.78
-10.78
-12.74
-14.48
-15.7
-16.05
-15.21
-12.98
-9.43
-5.01
-0.45
3.39
5.85
6.76
6.46
5.74
5.42
6.12
8.03
10.92
14.37
17.85
20.91
23.2
24.57
25.05
24.95
24.73
24.88
25.74
27.34
29.44
31.65
33.62
35.05
35.75
35.5
34.07
31.31
27.29
22.33
17.02
11.98
7.68
4.23
1.44
-1.15
-3.95
-7.19
-10.82
-14.54
-18
-20.89
-23.1
-24.69
-25.76
-26.37
-26.49
-26.04
-24.92
-23.16
-20.95
-18.53
-16.1
-13.81
-11.72
-9.83
-8.16
-6.84
-6.04
-5.95
-6.62
-7.86
-9.33
-10.58
-11.29
-11.38
-11.03
-10.63
-10.5
-10.76
-11.22
-11.5
-11.23
-10.28
-8.85
-7.35
-6.24
-5.84
-6.22
-7.24
-8.66
-10.29
-11.96
-13.56
-14.96
-16.02
-16.69
-17.06
-17.39
-18.01
-19.18
-20.92
-22.93
-24.71
-25.71
-25.54
-24.06
-21.48
-18.22
-14.84
-11.8
-9.42
-7.73
-6.51
-5.42
-4.12
-2.49
-0.71
0.88
1.89
2.07
1.42
0.15
-1.44
-2.99
-4.19
-4.8
-4.7
-3.93
-2.72
-1.41
-0.35
0.23
0.28
-0.13
-0.83
-1.79
-2.96
-4.28
-5.54
-6.48
-6.86
-6.64
-6.07
-5.55
-5.43
-5.89
-6.83
-7.96
-8.91
-9.43
-9.39
-8.83
-7.79
-6.35
-4.52
-2.32
0.2
2.96
5.81
8.58
11.12
13.3
15.01
16.22
16.92
17.09
16.77
16.03
14.98
13.76
12.49
11.2
9.86
8.41
6.79
5.01
3.13
1.32
-0.27
-1.49
-2.22
-2.44
-2.31
-2.08
-2.08
-2.58
-3.68
-5.28
-7.16
-9.02
-10.74
-12.33
-13.88
-15.51
-17.26
-19.09
-20.94
-22.76
-24.49
-25.94
-26.8
-26.6
-24.94
-21.69
-17.14
-11.99
-7.04
-2.9
0.29
2.78
5.05
7.42
9.84
11.99
13.44
14.03
13.94
13.6
13.38
13.4
13.42
13.09
12.22
10.86
9.36
8.16
7.53
7.53
7.97
8.62
9.24
9.67
9.76
9.42
8.6
7.33
5.78
4.19
2.79
1.65
0.76
0.01
-0.72
-1.51
-2.45
-3.65
-5.3
-7.53
-10.34
-13.52
-16.7
-19.47
-21.45
-22.43
-22.37
-21.33
-19.41
-16.76
-13.56
-10
-6.3
-2.62
0.93
4.27
7.32
9.99
12.12
13.54
14.22
14.22
13.75
13.07
12.38
11.75
11.15
10.42
9.44
8.23
6.91
5.74
4.98
4.84
5.34
6.33
7.5
8.45
8.83
8.43
7.21
5.31
2.98
0.43
-2.17
-4.72
-7.2
-9.62
-12.02
-14.45
-16.96
-19.58
-22.29
-25.01
-27.61
-29.89
-31.62
-32.59
-32.66
-31.8
-30.09
-27.75
-25.01
-22.08
-19.08
-16.04
-13.04
-10.17
-7.65
-5.69
-4.48
-4.03
-4.23
-4.84
-5.57
-6.21
-6.66
-6.94
-7.12
-7.31
-7.57
-7.88
-8.19
-8.42
-8.52
-8.44
-8.18
-7.81
-7.4
-7.1
-7.14
-7.71
-8.94
-10.8
-12.98
-14.96
-16.22
-16.3
-15.06
-12.63
-9.39
-5.77
-2.11
1.37
4.5
7.14
9.16
10.51
11.23
11.56
11.8
12.24
13.02
14.12
15.37
16.61
17.67
18.44
18.87
18.88
18.43
17.53
16.29
14.88
13.51
12.36
11.52
10.93
10.44
9.78
8.78
7.32
5.46
3.38
1.32
-0.58
-2.25
-3.78
-5.32
-7.02
-8.96
-11.12
-13.37
-15.56
-17.6
-19.48
-21.33
-23.34
-25.64
-28.17
-30.59
-32.41
-33.12
-32.39
-30.14
-26.56
-21.97
-16.69
-10.97
-4.96
1.19
7.34
13.23
18.62
23.29
27.09
29.99
32.01
33.2
33.63
33.4
32.66
31.68
30.72
30
29.54
29.21
28.77
28
26.82
25.22
23.29
21.13
18.85
16.63
14.74
13.44
12.88
13.03
13.69
14.61
15.56
16.41
17.08
17.51
17.59
17.25
16.45
15.25
13.84
12.46
11.42
11.06
11.71
13.65
17.08
22
28.17
35.2
42.58
49.76
56.22
61.54
65.47
67.89
68.83
68.39
66.63
63.5
58.86
52.58
44.73
35.61
25.72
15.63
5.76
-3.7
-12.7
-21.21
-29.01
-35.8
-41.22
-45.13
-47.61
-49.02
-49.77
-50.23
-50.58
-50.88
-51.14
-51.44
-51.88
-52.6
-53.68
-55.07
-56.54
-57.8
-58.55
-58.6
-57.95
-56.76
-55.24
-53.51
-51.55
-49.18
-46.2
-42.54
-38.32
-33.85
-29.38
-25.07
-20.85
-16.62
-12.34
-8.16
-4.36
-1.25
1.03
2.56
3.48
3.89
3.72
2.79
0.93
-1.81
-5.08
-8.34
-11.06
-12.88
-13.75
-13.88
-13.62
-13.35
-13.38
-13.82
-14.64
-15.65
-16.55
-17.03
-16.77
-15.56
-13.29
-10
-5.88
-1.23
3.54
8.05
11.95
15.1
17.47
19.19
20.41
21.22
21.67
21.78
21.59
21.24
20.9
20.76
20.98
21.63
22.74
24.22
25.92
27.58
28.96
29.85
30.21
30.1
29.72
29.31
29
28.82
28.69
28.49
28.12
27.53
26.75
25.84
24.88
23.89
22.81
21.53
19.92
17.84
15.23
12.07
8.48
4.66
0.84
-2.78
-6.16
-9.37
-12.67
-16.27
-20.24
-24.44
-28.52
-32.01
-34.5
-35.68
-35.46
-33.92
-31.24
-27.7
-23.62
-19.22
-14.66
-10
-5.28
-0.57
3.92
7.89
11.05
13.24
14.46
14.91
14.84
14.47
13.9
13.19
12.38
11.51
10.72
10.17
10
10.25
10.86
11.65
12.38
12.84
12.89
12.49
11.7
10.66
9.48
8.25
7
5.68
4.25
2.67
0.89
-1.13
-3.44
-6.04
-8.84
-11.71
-14.43
-16.77
-18.42
-19.16
-18.79
-17.29
-14.78
-11.53
-7.85
-4.01
-0.19
3.52
7.06
10.34
13.25
15.65
17.48
18.71
19.37
19.51
19.18
18.5
17.72
17.12
16.99
17.42
18.27
19.19
19.77
19.74
19.04
17.74
15.97
13.82
11.35
8.59
5.64
2.64
-0.28
-3.04
-5.63
-8.03
-10.21
-12.05
-13.56
-14.78
-15.89
-17.1
-18.58
-20.4
-22.49
-24.68
-26.73
-28.33
-29.04
-28.48
-26.43
-23.01
-18.74
-14.35
-10.59
-7.82
-6.01
-4.76
-3.54
-1.91
0.29
2.95
5.81
8.61
11.1
13.17
14.73
15.79
16.41
16.73
16.95
17.28
17.9
18.95
20.43
22.2
23.99
25.44
26.18
26.02
24.94
23.17
21.06
18.97
17.08
15.39
13.74
11.9
9.7
7.1
4.19
1.11
-1.93
-4.78
-7.39
-9.82
-12.27
-14.98
-18.17
-21.82
-25.68
-29.29
-32.15
-33.88
-34.38
-33.79
-32.31
-30.05
-26.94
-22.77
-17.41
-10.98
-3.89
3.2
9.68
15.16
19.52
22.86
25.33
27.02
27.93
28.11
27.67
26.84
25.88
25.02
24.36
23.85
23.37
22.78
22
20.99
19.74
18.3
16.76
15.22
13.79
12.51
11.38
10.29
9.13
7.87
6.48
5.06
3.73
2.58
1.67
1
0.53
0.14
-0.34
-1.14
-2.57
-4.85
-8.03
-11.92
-16.07
-19.91
-22.88
-24.67
-25.17
-24.55
-23.02
-20.78
-17.97
-14.71
-11.19
-7.6
-4.21
-1.2
1.41
3.64
5.57
7.2
8.5
9.4
9.96
10.26
10.47
10.74
11.14
11.67
12.35
13.19
14.21
15.35
16.48
17.35
17.78
17.63
16.95
15.83
14.34
12.48
10.19
7.45
4.35
1.09
-2.06
-4.87
-7.22
-9.15
-10.83
-12.47
-14.25
-16.31
-18.65
-21.21
-23.81
-26.21
-28.15
-29.34
-29.58
-28.75
-26.88
-24.1
-20.64
-16.71
-12.49
-8.09
-3.62
0.77
4.87
8.41
11.14
12.94
13.79
13.81
13.23
12.33
11.39
10.68
10.38
10.56
11.15
11.94
12.7
13.25
13.51
13.5
13.29
12.93
12.49
12.02
11.53
11.01
10.4
9.53
8.23
6.37
3.92
1.05
-2.01
-5.01
-7.8
-10.36
-12.8
-15.22
-17.64
-19.93
-21.85
-23.11
-23.51
-22.96
-21.46
-19.15
-16.22
-12.83
-9.14
-5.3
-1.46
2.24
5.64
8.6
11.05
12.99
14.45
15.47
16.07
16.24
15.97
15.31
14.33
13.2
12.07
11.05
10.18
9.44
8.76
8.08
7.36
6.58
5.77
4.94
4.16
3.48
2.92
2.46
2.02
1.53
0.89
0.08
-0.92
-2.09
-3.42
-4.93
-6.64
-8.58
-10.73
-12.96
-15.11
-16.91
-18.12
-18.56
-18.14
-16.85
-14.73
-11.88
-8.46
-4.71
-0.88
2.77
6.07
8.95
11.45
13.64
15.58
17.27
18.64
19.59
20.03
19.93
19.32
18.29
17.01
15.65
14.33
13.07
11.83
10.57
9.27
8.03
6.92
6.02
5.32
4.72
4.14
3.49
2.79
2.08
1.4
0.7
-0.1
-1.11
-2.44
-4.19
-6.35
-8.93
-11.79
-14.72
-17.43
-19.56
-20.81
-21.01
-20.14
-18.34
-15.84
-12.88
-9.66
-6.29
-2.85
0.6
3.93
7.01
9.68
11.82
13.34
14.23
14.53
14.33
13.76
12.97
12.14
11.38
10.8
10.41
10.22
10.16
10.19
10.23
10.2
10.01
9.6
8.95
8.08
7.05
5.89
4.65
3.31
1.95
0.64
-0.54
-1.58
-2.61
-3.81
-5.4
-7.46
-9.91
-12.44
-14.66
-16.11
-16.52
-15.81
-14.14
-11.77
-8.97
-5.94
-2.73
0.72
4.43
8.35
12.31
16.04
19.25
21.69
23.24
23.89
23.72
22.92
21.75
20.48
19.4
18.71
18.49
18.64
18.92
19.05
18.79
18.06
16.9
15.51
14.06
12.69
11.4
10.1
8.63
6.84
4.67
2.18
-0.51
-3.21
-5.76
-8.04
-9.99
-11.61
-12.92
-13.97
-14.85
-15.69
-16.61
-17.67
-18.78
-19.72
-20.2
-19.97
-18.93
-17.14
-14.75
-11.87
-8.59
-4.95
-1.05
2.88
6.57
9.73
12.18
13.82
14.65
14.71
14.03
12.69
10.8
8.58
6.32
4.31
2.73
1.65
1.03
0.74
0.69
0.8
0.95
1.04
0.95
0.61
-0.03
-0.89
-1.83
-2.62
-3.06
-2.94
-2.19
-0.86
0.84
2.59
4.03
4.86
4.95
4.31
3.11
1.59
0.03
-1.33
-2.3
-2.74
-2.62
-1.91
-0.67
1.06
3.22
5.72
8.45
11.31
14.13
16.8
19.2
21.21
22.7
23.63
23.96
23.79
23.26
22.5
21.58
20.5
19.18
17.54
15.62
13.46
11.19
8.89
6.61
4.41
2.33
0.44
-1.21
-2.63
-3.88
-5.07
-6.15
-6.96
-7.21
-6.58
-4.99
-2.6
0.14
2.71
4.68
5.88
6.37
6.38
6.1
5.63
5.03
4.36
3.74
3.36
3.32
3.57
3.87
3.92
3.53
2.74
1.78
0.96
0.47
0.25
0.09
-0.25
-0.86
-1.62
-2.29
-2.69
-2.76
-2.65
-2.55
-2.62
-2.87
-3.21
-3.53
-3.82
-4.1
-4.41
-4.69
-4.82
-4.68
-4.23
-3.64
-3.19
-3.17
-3.69
-4.74
-6.16
-7.86
-9.85
-12.26
-15.17
-18.48
-21.89
-25.01
-27.47
-29.09
-29.85
-29.8
-28.98
-27.41
-25.12
-22.24
-19.01
-15.74
-12.69
-9.92
-7.39
-4.9
-2.34
0.31
2.86
5.12
6.92
8.21
9.1
9.73
10.23
10.63
10.96
11.22
11.43
11.67
11.91
12.12
12.15
11.85
11.03
9.59
7.45
4.61
1.17
-2.71
-6.84
-11.01
-15.02
-18.67
-21.74
-24.03
-25.39
-25.9
-25.95
-26.17
-27.28
-29.79
-33.77
-38.86
-44.41
-49.74
-54.38
-58.15
-61.04
-63.12
-64.47
-65.14
-65.2
-64.72
-63.7
-62.03
-59.46
-55.65
-50.32
-43.43
-35.29
-26.55
-18.05
-10.64
-4.91
-1.15
0.78
1.25
0.73
-0.33
-1.61
-2.86
-3.88
-4.5
-4.58
-4.13
-3.22
-2.02
-0.66
0.75
2.15
3.47
4.62
5.49
5.98
6.03
5.61
4.7
3.23
1.13
-1.63
-5
-8.7
-12.32
-15.42
-17.63
-18.77
-18.92
-18.31
-17.18
-15.74
-14.1
-12.29
-10.33
-8.22
-5.97
-3.59
-1.09
1.48
4.04
6.43
8.46
9.98
10.88
11.18
10.95
10.36
9.62
8.95
8.49
8.3
8.28
8.24
8
7.48
6.72
5.84
4.94
4.02
2.96
1.61
-0.11
-2.13
-4.27
-6.26
-7.86
-8.9
-9.29
-8.96
-7.92
-6.22
-3.97
-1.34
1.42
4.1
6.5
8.5
10.05
11.12
11.75
11.99
11.98
11.91
11.97
12.26
12.74
13.23
13.46
13.23
12.56
11.67
10.89
10.49
10.56
10.96
11.44
11.71
11.56
10.9
9.72
8.11
6.26
4.45
2.91
1.87
1.34
1.16
1.05
0.72
0.08
-0.74
-1.47
-1.89
-1.9
-1.69
-1.6
-2
-3.14
-5.03
-7.45
-10.08
-12.59
-14.76
-16.53
-18.02
-19.46
-21.1
-23.15
-25.62
-28.32
-30.87
-32.83
-33.83
-33.64
-32.21
-29.66
-26.17
-21.92
-17.12
-11.95
-6.63
-1.43
3.41
7.67
11.21
14
16.14
17.77
19.03
20.05
20.85
21.39
21.64
21.54
21.14
20.58
20.01
19.53
19.19
18.95
18.75
18.52
18.27
18
17.71
17.4
16.99
16.44
15.69
14.73
13.59
12.26
10.75
9.04
7.16
5.16
3.16
1.3
-0.32
-1.67
-2.79
-3.81
-4.88
-6.12
-7.63
-9.44
-11.5
-13.68
-15.77
-17.52
-18.68
-19.03
-18.52
-17.2
-15.28
-12.99
-10.49
-7.87
-5.12
-2.24
0.7
3.57
6.14
8.23
9.8
10.86
11.5
11.81
11.81
11.51
10.98
10.35
9.82
9.59
9.73
10.19
10.8
11.35
11.68
11.7
11.43
10.94
10.34
9.67
9.01
8.37
7.74
7.12
6.5
5.84
5.05
4.06
2.8
1.29
-0.35
-1.96
-3.34
-4.41
-5.21
-5.9
-6.71
-7.87
-9.49
-11.55
-13.9
-16.27
-18.28
-19.56
-19.82
-18.94
-16.96
-14.1
-10.66
-6.92
-3.11
0.57
3.99
7.01
9.49
11.35
12.57
13.23
13.49
13.56
13.62
13.72
13.87
14.01
14.05
13.97
13.83
13.69
13.63
13.66
13.76
13.84
13.83
13.68
13.33
12.76
11.96
10.95
9.75
8.43
7.07
5.78
4.65
3.71
2.88
1.96
0.75
-0.94
-3.11
-5.62
-8.21
-10.67
-12.89
-14.93
-16.91
-18.95
-21.13
-23.36
-25.49
-27.29
-28.48
-28.78
-27.99
-26.09
-23.19
-19.59
-15.65
-11.65
-7.76
-4.03
-0.46
2.89
5.92
8.47
10.41
11.76
12.67
13.31
13.88
14.46
15.02
15.47
15.74
15.8
15.7
15.61
15.66
15.93
16.4
16.9
17.24
17.25
16.82
15.95
14.73
13.26
11.6
9.81
7.94
6.06
4.34
2.88
1.65
0.52
-0.73
-2.25
-4
-5.76
-7.24
-8.36
-9.24
-10.23
-11.68
-13.7
-16.08
-18.37
-20.07
-20.79
-20.36
-18.78
-16.18
-12.68
-8.42
-3.59
1.56
6.65
11.2
14.7
16.78
17.33
16.59
15.11
13.54
12.44
12.05
12.31
12.94
13.62
14.15
14.43
14.47
14.3
13.96
13.51
12.96
12.32
11.51
10.46
9.15
7.61
5.99
4.47
3.18
2.18
1.42
0.78
0.16
-0.52
-1.31
-2.25
-3.37
-4.69
-6.25
-8
-9.95
-12.03
-14.15
-16.15
-17.81
-18.9
-19.19
-18.57
-17.02
-14.66
-11.71
-8.4
-5.04
-1.83
1.07
3.58
5.66
7.29
8.43
9.08
9.27
9.08
8.69
8.26
7.92
7.7
7.53
7.31
6.92
6.29
5.41
4.29
3.04
1.73
0.47
-0.77
-2.08
-3.59
-5.39
-7.37
-9.26
-10.64
-11.13
-10.48
-8.67
-5.87
-2.39
1.4
5.11
8.41
11.02
12.88
14.19
15.24
16.35
17.64
19.01
20.18
20.87
20.96
20.52
19.73
18.79
17.8
16.81
15.85
14.97
14.28
13.85
13.7
13.72
13.73
13.51
12.95
12.06
10.96
9.87
8.89
8
7.04
5.78
4.06
1.85
-0.74
-3.53
-6.3
-8.89
-11.16
-13.04
-14.54
-15.82
-17.15
-18.79
-20.95
-23.58
-26.45
-29.25
-31.73
-33.77
-35.37
-36.41
-36.69
-35.88
-33.73
-30.19
-25.52
-20.16
-14.51
-8.89
-3.41
1.86
6.84
11.34
15.1
17.91
19.72
20.66
20.98
21.02
21.02
21.19
21.6
22.22
22.96
23.61
23.95
23.78
22.97
21.51
19.51
17.22
14.92
12.9
11.29
10.11
9.19
8.26
7.08
5.43
3.29
0.76
-1.94
-4.59
-7.05
-9.31
-11.45
-13.65
-16.02
-18.63
-21.36
-23.96
-26.13
-27.52
-27.85
-27
-25.01
-22.06
-18.45
-14.47
-10.37
-6.28
-2.28
1.56
5.09
8.08
10.31
11.68
12.28
12.44
12.59
13.13
14.29
16.03
18.11
20.11
21.52
21.83
20.77
18.41
15.23
12.08
9.87
9.26
10.39
12.9
16.09
19.21
21.72
23.38
24.13
23.97
22.85
20.68
17.41
13.1
7.89
2.09
-3.93
-9.69
-14.74
-18.67
-21.26
-22.48
-22.49
-21.61
-20.18
-18.52
-16.84
-15.24
-13.73
-12.19
-10.47
-8.37
-5.89
-3.19
-0.68
1.12
1.75
1.03
-0.85
-3.32
-5.61
-6.89
-6.54
-4.26
-0.11
5.48
11.81
18.07
23.48
27.5
29.94
31.01
31.25
31.29
31.66
32.65
34.24
36.2
38.3
40.34
42.2
43.77
44.93
45.45
45.1
43.76
41.41
38.2
34.45
30.55
26.99
24.28
22.8
22.63
23.41
24.38
24.57
23.15
19.71
14.41
7.89
0.96
-5.69
-11.58
-16.55
-20.56
-23.68
-25.97
-27.54
-28.53
-29.09
-29.4
-29.56
-29.62
-29.6
-29.45
-29.11
-28.6
-27.94
-27.2
-26.46
-25.82
-25.33
-25.03
-24.9
-24.86
-24.83
-24.71
-24.49
-24.19
-23.92
-23.8
-23.93
-24.41
-25.31
-26.68
-28.52
-30.75
-33.17
-35.47
-37.25
-38.16
-37.98
-36.67
-34.34
-31.14
-27.28
-22.93
-18.29
-13.58
-8.98
-4.66
-0.71
2.84
5.96
8.55
10.47
11.55
11.79
11.35
10.6
9.95
9.7
9.88
10.24
10.4
10.02
8.94
7.29
5.44
3.78
2.63
2.11
2.05
2.08
1.72
0.63
-1.29
-3.82
-6.51
-8.84
-10.47
-11.38
-11.88
-12.51
-13.76
-15.88
-18.79
-22.04
-24.87
-26.46
-26.08
-23.39
-18.67
-12.91
-7.67
-4.52
-4.52
-7.64
-12.75
-17.9
-21.06
-20.92
-17.18
-10.59
-2.38
6.18
14.2
21.2
26.97
31.41
34.41
35.95
36.15
35.36
34.07
32.73
31.65
30.84
30.14
29.28
28.08
26.47
24.57
22.6
20.77
19.24
18.01
17
16.05
15.01
13.77
12.35
10.84
9.36
8.03
6.84
5.71
4.51
3.23
1.98
0.98
0.41
0.31
0.56
0.96
1.52
2.48
4.39
7.89
13.45
21.19
30.78
41.56
52.67
63.27
72.82
81.26
89.18
97.75
108.47
122.6
140.48
161
181.41
197.81
206.31
204.39
191.98
171.6
147.55
124.47
106.06
94.33
89.59
90.88
96.4
103.9
110.85
114.94
114.63
109.72
101.39
91.74
82.81
75.82
70.95
67.62
65.15
63.1
61.42
60.15
59.32
58.79
58.42
58.12
57.93
57.88
58.05
58.46
58.99
59.28
58.47
55.2
47.76
34.62
14.95
-11.04
-42.25
-77.11
-114.11
-152.09
-190.16
-227.48
-263.09
-296
-325.47
-351.13
-372.89
-390.58
-403.53
-410.49
-410.06
-401.25
-384.13
-360
-331.08
-299.81
-268.21
-237.51
-208.26
-180.68
-155.05
-131.84
-111.53
-94.32
-79.86
-67.36
-55.75
-44.25
-32.53
-20.71
-9.22
1.63
11.8
21.53
31.11
40.73
50.19
58.97
66.39
71.81
74.82
75.34
73.52
69.7
64.29
57.76
50.67
43.63
37.24
31.92
27.71
24.29
21.06
17.49
13.32
8.63
3.75
-0.98
-5.33
-9.28
-12.87
-16.13
-19
-21.37
-23.2
-24.52
-25.42
-25.9
-25.84
-25.04
-23.36
-20.91
-18.03
-15.21
-12.91
-11.42
-10.73
-10.57
-10.53
-10.26
-9.53
-8.4
-7.08
-5.87
-5.01
-4.55
-4.38
-4.23
-3.83
-2.96
-1.6
0.17
2.2
4.27
6.2
7.81
9.03
9.82
10.23
10.33
10.25
10.07
9.85
9.6
9.26
8.73
7.9
6.69
5.13
3.4
1.79
0.6
0.06
0.27
1.26
3.04
5.73
9.44
14.11
19.3
24.07
27.17
27.47
24.45
18.47
10.71
2.75
-3.96
-8.53
-10.79
-11.03
-9.79
-7.56
-4.66
-1.41
1.87
4.81
7.05
8.51
9.35
10.08
11.25
13.31
16.42
20.35
24.56
28.36
31.1
32.31
31.86
29.97
27.05
23.62
20.09
16.65
13.26
9.75
5.94
1.77
-2.63
-6.98
-10.99
-14.43
-17.25
-19.6
-21.76
-24
-26.36
-28.52
-29.97
-30.09
-28.52
-25.31
-20.92
-15.98
-11.04
-6.32
-1.79
2.68
7.14
11.4
15.15
18.09
20.16
21.57
22.69
23.89
25.3
26.84
28.23
29.21
29.71
29.88
30.02
30.44
31.27
32.41
33.65
34.72
35.45
35.9
36.25
36.79
37.82
39.56
42.11
45.3
48.58
51.08
51.73
49.62
44.41
36.62
27.56
19.03
12.82
10.23
11.85
17.48
26.35
37.29
48.91
59.79
68.65
74.62
77.53
77.95
77.13
76.61
77.85
81.8
88.8
98.53
110.27
123.07
135.91
147.66
157.09
162.81
163.54
158.27
146.69
129.29
107.35
82.65
57.07
32.18
8.98
-12.05
-30.88
-47.72
-62.78
-76.21
-87.99
-97.92
-105.7
-111.16
-114.35
-115.57
-115.35
-114.23
-112.63
-110.87
-109.21
-107.97
-107.45
-107.8
-108.83
-110.03
-110.8
-110.79
-110.16
-109.59
-109.91
-111.69
-114.96
-119.17
-123.52
-127.17
-129.46
-129.87
-128.01
-123.56
-116.45
-106.96
-95.71
-83.43
-70.65
-57.55
-44.2
-30.72
-17.52
-5.09
6.38
17.2
28.15
39.94
52.66
65.54
77.19
86.18
91.61
93.33
91.81
87.78
82.04
75.46
69.02
63.78
60.6
59.86
61.28
64.08
67.25
69.93
71.72
72.69
73.37
74.51
76.73
80.1
83.86
86.5
86.14
81.05
70.26
53.76
32.31
7.18
-20.37
-49.19
-78.34
-106.99
-134.39
-159.81
-182.54
-201.91
-217.22
-227.78
-232.93
-232.3
-225.9
-214.15
-197.79
-177.64
-154.41
-128.73
-101.24
-72.72
-44.18
-16.77
8.3
30
47.58
60.62
69.06
73.15
73.42
70.64
65.75
59.86
54.02
49.16
45.93
44.55
44.92
46.63
49.2
52.25
55.67
59.58
64.48
71.04
80.09
92.19
107.02
123.08
137.97
149.38
156.21
159.22
160.54
162.4
165.71
169.59
171.9
170.72
165.4
156.68
145.88
133.75
119.82
102.79
81.38
55.3
25.45
-6.36
-38.09
-67.84
-94.15
-116.1
-133.22
-145.62
-153.71
-158.08
-159.28
-157.71
-153.72
-147.79
-140.64
-133.04
-125.64
-118.68
-111.99
-105.18
-97.94
-90.27
-82.53
-75.32
-69.14
-64.18
-60.25
-56.78
-53.14
-48.76
-43.31
-36.75
-29.25
-21.1
-12.63
-4.09
4.26
12.23
19.55
26
31.35
35.53
38.61
40.73
42.08
42.74
42.7
41.9
40.35
38.18
35.6
32.82
30
27.22
24.59
22.24
20.35
19.03
18.19
17.56
16.77
15.54
13.81
11.74
9.56
7.49
5.55
3.64
1.55
-0.82
-3.35
-5.67
-7.23
-7.47
-5.98
-2.72
1.93
7.17
12.05
15.66
17.45
17.29
15.44
12.38
8.63
4.68
0.84
-2.72
-6.09
-9.54
-13.42
-18.07
-23.63
-29.96
-36.65
-43.08
-48.64
-52.84
-55.38
-56.15
-55.22
-52.84
-49.38
-45.3
-41.12
-37.31
-34.23
-32.06
-30.77
-30.21
-30.14
-30.33
-30.61
-30.9
-31.21
-31.62
-32.24
-33.15
-34.4
-36.01
-37.9
-39.92
-41.77
-43.07
-43.38
-42.34
-39.77
-35.7
-30.37
-24.09
-17.18
-9.92
-2.53
4.76
11.6
17.64
22.56
26.2
28.58
29.95
30.65
31.02
31.36
31.74
32.04
31.96
31.13
29.26
26.21
21.99
16.71
10.4
3.03
-5.52
-15.21
-25.76
-36.58
-46.88
-55.98
-63.46
-69.45
-74.53
-79.54
-85.2
-91.83
-99.1
-106.08
-111.39
-113.48
-110.97
-102.99
-89.51
-71.54
-51.01
-30.42
-12.24
1.89
11.61
17.83
22.31
26.82
32.44
39.14
45.94
51.49
54.75
55.52
54.38
52.33
50.28
48.58
47.03
45.19
42.77
39.91
37.1
34.82
33.32
32.51
32.14
32.04
32.32
33.31
35.23
37.96
40.8
42.71
42.7
40.38
36.42
32.58
31.21
34.32
42.61
54.91
68.52
80.14
87.24
88.89
85.95
80.38
74.22
68.84
64.71
61.74
59.73
58.68
58.7
59.77
61.5
63.14
63.89
63.22
61.06
57.81
54.03
50.22
46.46
42.45
37.67
31.68
24.39
16.2
7.88
0.37
-5.62
-9.78
-12.23
-13.4
-13.72
-13.49
-12.82
-11.69
-10.04
-7.91
-5.36
-2.5
0.62
4.01
7.64
11.46
15.31
19.01
22.38
25.33
27.85
29.97
31.69
32.92
33.52
33.35
32.33
30.45
27.9
24.92
21.84
19.03
16.82
15.44
15
15.45
16.62
18.23
20
21.71
23.29
24.83
26.59
28.88
31.93
35.79
40.31
45.17
49.96
54.33
58
60.73
62.35
62.72
61.77
59.54
56.19
51.93
46.86
40.95
33.97
25.59
15.51
3.72
-9.32
-22.5
-34.16
-42.46
-45.89
-43.86
-36.95
-26.84
-15.76
-5.8
1.64
6.12
8.01
8.19
7.69
7.48
8.28
10.55
14.42
19.71
25.95
32.51
38.73
44.03
47.94
50.14
50.42
48.74
45.24
40.19
33.87
26.53
18.24
8.94
-1.46
-12.87
-24.93
-36.95
-48.1
-57.58
-64.91
-70.13
-73.79
-76.91
-80.71
-86.26
-94.17
-104.36
-116.07
-128.08
-139.13
-148.27
-155.07
-159.46
-161.46
-160.87
-157.24
-150.02
-138.97
-124.31
-106.86
-87.84
-68.64
-50.5
-34.38
-20.68
-9.13
1.28
12.06
24.61
39.63
56.69
74.52
91.76
107.62
122.23
136.32
150.5
164.74
178.27
190.09
199.54
206.62
211.66
214.83
215.73
213.54
207.52
197.61
184.57
169.63
153.98
138.14
121.99
104.99
86.69
67.07
46.62
26.03
5.79
-14.1
-34.18
-55.2
-77.77
-101.99
-127.26
-152.35
-175.58
-195
-208.5
-214.08
-210.35
-197.17
-176.21
-150.88
-125.54
-104.24
-89.42
-81.34
-78.54
-78.93
-80.94
-84.1
-88.74
-95.22
-103.29
-111.91
-119.62
-124.99
-126.95
-124.81
-118.11
-106.54
-90.18
-69.71
-46.59
-22.97
-1.15
16.89
30.01
38.05
41.7
42.13
40.67
38.39
35.94
33.44
30.66
27.19
22.71
17.07
10.45
3.24
-3.98
-10.61
-16.1
-20.07
-22.4
-23.23
-22.94
-22
-20.91
-19.95
-19.26
-18.78
-18.41
-18.13
-18.05
-18.42
-19.52
-21.51
-24.33
-27.66
-30.95
-33.56
-34.95
-34.8
-33.13
-30.28
-26.77
-23.14
-19.75
-16.78
-14.18
-11.8
-9.5
-7.19
-4.83
-2.49
-0.28
1.6
2.96
3.64
3.64
3.15
2.54
2.14
2.19
2.73
3.69
4.91
6.29
7.76
9.22
10.55
11.57
12.14
12.25
12.1
11.88
11.81
11.83
11.71
11.07
9.49
6.69
2.49
-3.15
-10.13
-18.24
-27.05
-35.98
-44.35
-51.56
-57.25
-61.32
-63.88
-65.08
-65.02
-63.68
-60.93
-56.54
-50.17
-41.44
-30.11
-16.31
-0.73
15.35
30.32
42.6
51.06
55.18
55.07
51.2
44.32
35.25
24.89
14.22
4.11
-4.75
-11.94
-17.4
-21.29
-23.88
-25.38
-25.93
-25.58
-24.4
-22.56
-20.3
-17.94
-15.78
-14.06
-12.88
-12.27
-12.12
-12.25
-12.39
-12.21
-11.4
-9.79
-7.43
-4.66
-2.03
-0.05
0.97
1.08
0.64
0.12
-0.05
0.32
1.21
2.47
3.94
5.48
7.02
8.52
9.94
11.32
12.73
14.31
16.17
18.33
20.69
23.08
25.29
27.15
28.52
29.32
29.51
29.09
28.15
26.8
25.22
23.56
21.9
20.25
18.6
16.98
15.49
14.34
13.73
13.71
14.03
14.22
13.57
11.48
7.66
2.39
-3.54
-9.08
-13.24
-15.44
-15.69
-14.51
-12.73
-11.21
-10.59
-11.16
-12.88
-15.46
-18.47
-21.45
-23.97
-25.66
-26.32
-25.92
-24.58
-22.51
-19.96
-17.19
-14.34
-11.49
-8.65
-5.81
-3.01
-0.33
2.1
4.17
5.92
7.51
9.16
11.1
13.34
15.69
17.82
19.42
20.37
20.72
20.67
20.35
19.83
19.09
18.15
17.1
16.04
15.1
14.23
13.28
11.96
10.14
7.78
5.01
2.09
-0.75
-3.34
-5.6
-7.58
-9.39
-11.18
-13.13
-15.37
-17.88
-20.49
-22.88
-24.64
-25.45
-25.12
-23.72
-21.5
-18.74
-15.63
-12.16
-8.11
-3.29
2.35
8.63
15.05
21.04
26.12
30.05
32.89
34.84
36.18
37.11
37.75
38.16
38.41
38.52
38.44
38.1
37.37
36.16
34.44
32.28
29.81
27.19
24.59
22.19
20.09
18.35
16.88
15.53
14.06
12.3
10.18
7.79
5.3
2.88
0.58
-1.67
-4.09
-6.9
-10.19
-13.9
-17.78
-21.54
-24.83
-27.36
-28.84
-29.03
-27.83
-25.25
-21.51
-16.93
-11.88
-6.59
-1.15
4.4
10.02
15.49
20.48
24.56
27.41
28.89
29.13
28.4
27.1
25.62
24.25
23.19
22.45
21.94
21.52
21.03
20.42
19.62
18.66
17.55
16.3
14.99
13.7
12.56
11.6
10.71
9.68
8.3
6.38
3.91
1.02
-2.09
-5.25
-8.46
-11.82
-15.46
-19.43
-23.59
-27.65
-31.21
-33.91
-35.56
-36.09
-35.53
-33.85
-30.94
-26.67
-21.05
-14.27
-6.82
0.68
7.67
13.77
18.87
22.98
26.16
28.45
29.93
30.73
31.15
31.58
32.34
33.54
35.11
36.73
38.1
39.04
39.65
40.23
41.16
42.67
44.71
46.94
48.9
50.34
51.43
52.83
55.5
60.31
67.68
77.31
88.24
99.08
108.26
114.27
115.85
112.2
103.12
89.06
71.07
50.48
28.63
6.68
-14.51
-34.31
-52.14
-67.49
-79.92
-89.26
-95.66
-99.61
-101.78
-102.76
-102.89
-102.18
-100.35
-97.04
-92.1
-85.77
-78.8
-72.23
-67.11
-64.09
-63.23
-63.97
-65.39
-66.5
-66.51
-65.02
-62.03
-57.84
-52.92
-47.72
-42.53
-37.49
-32.6
-27.84
-23.22
-18.82
-14.71
-10.83
-7.04
-3.14
1
5.33
9.58
13.4
16.53
18.96
20.88
22.58
24.26
25.99
27.68
29.26
30.7
32.17
33.86
35.93
38.31
40.65
42.4
43.02
42.13
39.72
36.13
31.91
27.65
23.77
20.49
17.83
15.74
14.1
12.83
11.86
11.08
10.37
9.65
8.93
8.3
7.83
7.56
7.36
6.99
6.28
5.13
3.66
2.02
0.32
-1.52
-3.77
-6.76
-10.68
-15.46
-20.74
-25.99
-30.62
-34.14
-36.19
-36.59
-35.32
-32.51
-28.37
-23.14
-17.02
-10.16
-2.7
5.19
13.26
21.19
28.67
35.37
41.01
45.38
48.38
50.12
50.93
51.26
51.54
51.98
52.49
52.7
52.15
50.46
47.5
43.35
38.3
32.7
26.88
21.1
15.57
10.41
5.64
1.19
-2.97
-6.81
-10.14
-12.69
-14.18
-14.45
-13.62
-12.06
-10.4
-9.23
-8.99
-9.83
-11.55
-13.74
-15.81
-17.25
-17.57
-16.58
-14.26
-10.89
-6.92
-2.92
0.58
3.12
4.44
4.51
3.55
1.97
0.28
-0.98
-1.34
-0.48
1.78
5.43
10.22
15.66
21.07
25.69
28.91
30.44
30.43
29.36
27.85
26.38
25.1
23.84
22.27
20.09
17.3
14.14
11.03
8.28
5.96
3.86
1.61
-1.11
-4.45
-8.47
-13.19
-18.66
-25
-32.16
-39.73
-46.86
-52.47
-55.58
-55.72
-53.11
-48.65
-43.53
-38.83
-35.16
-32.67
-31.11
-30.06
-29.08
-27.68
-25.23
-20.95
-14.24
-4.9
6.42
18.29
28.96
36.96
41.69
43.53
43.54
42.82
41.94
40.82
38.95
35.86
31.55
26.5
21.48
17.14
13.68
10.82
8.03
4.85
1.15
-2.83
-6.6
-9.62
-11.46
-11.87
-10.73
-7.95
-3.56
2.22
8.93
15.82
22.01
26.68
29.25
29.42
27.11
22.4
15.51
6.79
-3.2
-13.63
-23.51
-31.72
-37.29
-39.54
-38.2
-33.45
-25.9
-16.46
-6.22
3.79
12.76
20.27
26.28
30.95
34.53
37.02
38.19
37.64
35.02
30.32
23.92
16.66
9.54
3.46
-1.18
-4.58
-7.61
-11.39
-16.87
-24.23
-32.64
-40.35
-45.29
-45.8
-41.37
-32.87
-22.35
-12.33
-4.99
-1.43
-1.42
-3.45
-5.26
-4.42
0.99
11.85
27.63
46.34
64.93
80.22
89.84
93.05
90.58
83.75
73.32
58.8
38.91
12.92
-17.99
-50.33
-79.27
-100.57
-112.31
-115.43
-112.9
-108.07
-103.13
-98.64
-94.1
-88.84
-82.82
-76.64
-71.18
-66.89
-63.59
-60.52
-56.68
-51.34
-44.29
-35.98
-27.35
-19.58
-13.71
-10.41
-9.68
-10.91
-12.89
-14.31
-14.16
-12.17
-9.01
-5.98
-4.44
-5.22
-8.24
-12.57
-16.96
-20.38
-22.52
-23.79
-25
-26.91
-29.77
-33.19
-36.33
-38.25
-38.16
-35.67
-30.78
-23.91
-15.93
-8.18
-2.25
0.44
-0.64
-4.64
-9.33
-11.86
-9.98
-3.07
7.5
19.02
28.58
34.18
35.25
32.52
27.32
21.09
15.05
10.33
8.04
9.2
14.43
23.6
35.76
49.33
62.58
74.04
82.82
88.56
91.36
91.52
89.28
84.78
78.05
69.32
59.32
49.58
42.42
40.26
44.52
54.54
67.34
78.44
83.75
81.36
72.32
60
48.32
39.99
35.51
33.6
32.19
29.64
25.18
18.83
10.9
1.8
-8.04
-17.92
-26.92
-34.18
-39.23
-42.32
-44.33
-46.52
-50
-55.37
-62.41
-70.1
-76.87
-80.98
-81.13
-76.75
-68.31
-57.11
-45
-33.81
-24.97
-19.11
-15.99
-14.64
-13.67
-11.68
-7.65
-1.16
7.54
17.62
27.92
37.27
44.67
49.64
52.14
52.55
51.45
49.39
46.71
43.57
40.05
36.22
32.3
28.55
25.22
22.4
20.08
18.17
16.71
15.91
15.98
17.12
19.21
21.85
24.5
26.69
28.27
29.4
30.44
31.6
32.76
33.52
33.38
32.07
29.64
26.46
22.93
19.36
15.86
12.39
8.97
5.68
2.62
-0.17
-2.74
-5.16
-7.45
-9.55
-11.34
-12.76
-13.87
-14.84
-15.84
-16.93
-17.98
-18.7
-18.75
-17.87
-15.93
-13.08
-9.65
-6.08
-2.86
-0.35
1.21
1.81
1.71
1.43
1.55
2.47
4.19
6.11
7.3
6.87
4.5
0.64
-3.58
-6.8
-7.94
-6.54
-2.77
2.65
8.76
14.61
19.45
22.99
25.51
27.78
30.72
34.94
40.45
46.6
52.43
57.13
60.42
62.48
63.72
64.41
64.38
63.06
59.59
53.09
43
29.33
12.91
-4.67
-21.31
-35.04
-44.65
-50.17
-52.78
-54.21
-56.16
-59.76
-65.61
-73.99
-85.02
-98.47
-113.51
-128.59
-141.76
-151.42
-156.87
-158.43
-156.96
-153
-146.37
-136.21
-121.73
-103.06
-81.55
-59.53
-39.68
-24.08
-13.89
-9.12
-9.01
-12.22
-17.15
-22.12
-25.6
-26.49
-24.41
-19.98
-14.79
-10.86
-10.03
-13.12
-19.71
-28.19
-36.39
-42.22
-44.33
-42.34
-36.82
-29.11
-20.98
-14.13
-9.81
-8.52
-9.95
-13.47
-18.59
-25.35
-34.15
-45.19
-57.78
-70.03
-79.32
-83.11
-79.96
-69.99
-54.88
-37.22
-19.78
-4.68
6.93
15.06
20.69
25.37
30.73
38.13
48.35
61.59
77.37
94.47
110.89
123.9
130.59
128.74
117.78
99.33
76.77
53.98
33.79
16.94
2.2
-12.48
-28.34
-44.79
-59.48
-69.4
-72.46
-68.54
-59.58
-48.71
-39.04
-32.56
-29.86
-30.43
-33.36
-37.79
-43.18
-49.12
-55.14
-60.59
-64.77
-67.25
-68.1
-67.89
-67.5
-67.67
-68.68
-70.11
-70.92
-69.81
-65.65
-57.9
-46.8
-33.29
-18.67
-4.3
8.82
20.19
29.75
37.74
44.45
50.07
54.64
58.14
60.56
62.02
62.72
62.95
63
63.15
63.55
64.21
65
65.61
65.69
64.96
63.31
60.95
58.32
56.08
54.92
55.41
57.8
61.79
66.47
70.37
71.84
69.41
62.37
51.07
36.96
22.22
9.22
-0.21
-5.23
-6.14
-4.18
-1.07
1.64
2.87
2.29
0.21
-2.69
-5.7
-8.36
-10.7
-13.15
-16.4
-21.08
-27.5
-35.57
-44.88
-54.83
-64.7
-73.7
-80.94
-85.47
-86.45
-83.48
-76.74
-67.09
-55.75
-44.01
-32.8
-22.65
-13.67
-5.82
0.98
6.74
11.39
14.93
17.43
19.19
20.68
22.58
25.62
30.42
37.16
45.4
54.03
61.51
66.37
67.72
65.5
60.45
53.8
46.86
40.77
36.36
34.06
33.87
35.28
37.35
38.95
39.16
37.66
34.88
31.74
29.19
27.75
27.24
26.93
25.91
23.51
19.54
14.38
8.7
3.29
-1.19
-4.37
-6.25
-7.08
-7.29
-7.37
-7.61
-7.98
-8.07
-7.17
-4.73
-0.62
4.58
9.68
13.24
14.1
11.71
6.33
-1.14
-9.44
-17.29
-23.54
-27.41
-28.47
-26.75
-22.74
-17.29
-11.41
-6
-1.57
1.82
4.55
7.22
10.38
14.3
18.87
23.62
27.91
31.2
33.19
33.85
33.49
32.48
31.27
30.18
29.42
29.06
28.99
29.03
28.87
28.27
27.08
25.35
23.2
20.73
17.96
14.78
11.1
6.91
2.41
-2.05
-6.09
-9.44
-12.04
-14.04
-15.75
-17.51
-19.61
-22.12
-24.93
-27.69
-29.97
-31.38
-31.71
-31.04
-29.55
-27.48
-24.94
-21.9
-18.31
-14.18
-9.73
-5.38
-1.61
1.2
2.87
3.4
2.96
1.87
0.57
-0.36
-0.34
0.96
3.39
6.22
8.34
8.7
6.76
2.72
-2.57
-8.02
-12.75
-16.42
-19.17
-21.35
-23.14
-24.46
-24.99
-24.48
-22.89
-20.48
-17.64
-14.69
-11.74
-8.76
-5.69
-2.58
0.41
3.22
6
9.16
13.19
18.34
24.38
30.62
36.23
40.61
43.66
45.74
47.5
49.57
52.37
56.06
60.48
65.16
69.32
72.03
72.49
70.39
66.15
60.9
56.11
52.98
52.05
53.02
55.09
57.43
59.62
61.84
64.69
68.84
74.56
81.45
88.45
94.2
97.54
98
95.95
92.35
88.17
83.93
79.37
73.72
66.1
56.02
43.35
28.17
10.68
-8.61
-28.46
-46.73
-60.93
-69.21
-71.52
-69.91
-67.85
-68.79
-74.72
-85.53
-99.34
-113.58
-125.92
-134.86
-139.67
-140.27
-137.07
-131.04
-123.58
-116.28
-110.4
-106.47
-104.08
-101.93
-98.12
-90.7
-78.7
-62.91
-46.2
-32.73
-26.14
-27.53
-34.36
-41.2
-41.97
-32.71
-13.3
12.85
40.62
65.74
86.23
102.43
115.74
127.17
136.61
143.16
145.85
144.33
138.95
130.28
118.71
104.11
86.04
64.31
39.51
13.22
-12.26
-34.41
-51.29
-61.97
-66.68
-66.48
-62.88
-57.25
-50.6
-43.48
-36.2
-29.01
-22.24
-16.2
-11.06
-6.71
-2.76
1.31
5.94
11.34
17.41
23.8
30
35.56
40.28
44.38
48.51
53.61
60.55
69.59
80.23
91.21
100.94
108.07
111.94
112.61
110.71
106.99
101.97
95.82
88.55
80.14
70.77
60.84
50.84
41.07
31.4
21.15
9.31
-5.07
-22.35
-42.01
-62.7
-82.67
-100.35
-114.77
-125.67
-133.18
-137.51
-138.72
-136.75
-131.65
-123.83
-114.06
-103.33
-92.46
-82.05
-72.36
-63.51
-55.59
-48.65
-42.72
-37.71
-33.42
-29.71
-26.46
-23.74
-21.55
-19.86
-18.43
-16.94
-15.15
-13.05
-10.92
-9.14
-7.94
-7.1
-6
-3.81
0.13
6
13.45
21.7
29.86
37.19
43.21
47.69
50.6
52.14
52.67
52.72
52.89
53.69
55.33
57.75
60.63
63.53
66.04
67.8
68.58
68.2
66.65
64.04
60.63
56.66
52.28
47.55
42.39
36.72
30.53
23.92
16.99
9.92
2.84
-4.04
-10.47
-16.23
-21.09
-24.94
-27.76
-29.69
-30.96
-31.95
-33.09
-34.9
-37.79
-42
-47.53
-54.1
-61.3
-68.62
-75.54
-81.57
-86.26
-89.21
-90.18
-89
-85.65
-80.19
-72.85
-64
-54.2
-44.02
-33.97
-24.26
-14.81
-5.43
3.98
13.15
21.5
28.23
32.73
34.78
34.66
33
30.53
27.82
25.19
22.67
20.08
17.12
13.46
8.82
3.1
-3.58
-10.93
-18.58
-26.28
-34
-41.82
-49.8
-57.77
-65.22
-71.42
-75.62
-77.23
-75.87
-71.4
-63.75
-53.17
-40.27
-26.21
-12.61
-1.28
6.3
9.38
8.18
3.74
-2.44
-8.85
-14.19
-17.54
-18.33
-16.25
-11.38
-4.11
4.77
14.21
23.16
30.84
36.92
41.61
45.44
48.98
52.58
56.14
59.22
61.23
61.75
60.78
58.83
56.7
55.22
54.83
55.44
56.46
57.06
56.41
54.09
50.1
44.96
39.44
34.28
29.83
25.75
20.97
14.13
4.26
-8.3
-21.6
-32.38
-37.19
-33.82
-22.45
-5.79
11.76
25.74
33.19
33.55
28.63
21.77
16.84
17.09
24.35
38.52
57.48
77.52
94.35
104.42
105.93
99.42
87.17
72.13
56.71
42.09
28.4
15.55
3.95
-5.21
-10.46
-10.81
-6.25
2.05
12.2
22.09
29.91
34.5
35.52
33.73
30.99
29.97
33.33
42.58
57.24
74.8
91.67
104.66
112.13
114.38
112.9
109.24
104.2
97.68
89.28
79
67.47
55.72
44.53
34.07
23.87
13.36
2.33
-8.8
-19.22
-28.14
-35.23
-40.75
-45.4
-49.98
-55.11
-61.13
-68.13
-76.1
-84.99
-94.79
-105.55
-117.29
-129.78
-142.4
-154.01
-163.15
-168.46
-169.16
-165.5
-158.72
-150.56
-142.73
-136.28
-131.44
-127.75
-124.49
-120.98
-116.74
-111.51
-105.18
-97.79
-89.53
-80.73
-71.75
-62.94
-54.47
-46.4
-38.72
-31.49
-24.94
-19.39
-15.23
-12.7
-11.81
-12.22
-13.33
-14.36
-14.63
-13.69
-11.39
-7.88
-3.48
1.47
6.71
12
17.14
21.88
25.97
29.25
31.66
33.29
34.27
34.69
34.56
33.82
32.42
30.41
27.99
25.41
22.94
20.82
19.17
17.91
16.81
15.46
13.4
10.3
6.13
1.26
-3.62
-7.73
-10.54
-11.87
-11.93
-11.09
-9.66
-7.78
-5.47
-2.76
0.15
2.98
5.44
7.4
8.92
10.24
11.57
13.02
14.51
15.88
16.98
17.76
18.32
18.87
19.77
21.37
24
27.74
32.36
37.34
41.92
45.43
47.45
47.9
47.05
45.28
42.99
40.52
38.12
35.99
34.31
33.16
32.42
31.78
30.81
29.14
26.59
23.27
19.55
15.81
12.32
9.11
5.99
2.71
-0.84
-4.5
-7.83
-10.28
-11.38
-10.91
-9.03
-6.18
-2.97
0.01
2.31
3.73
4.33
4.37
4.18
3.99
3.91
3.85
3.58
2.89
1.66
-0.06
-2.07
-4.02
-5.56
-6.36
-6.22
-5.12
-3.19
-0.75
1.88
4.31
6.21
7.3
7.35
6.27
4.11
1.08
-2.53
-6.37
-10.12
-13.49
-16.22
-18.1
-19
-18.95
-18.22
-17.28
-16.67
-16.87
-18.09
-20.26
-23.06
-26.06
-28.9
-31.31
-33.13
-34.29
-34.69
-34.33
-33.31
-31.92
-30.53
-29.57
-29.3
-29.69
-30.36
-30.75
-30.26
-28.48
-25.3
-20.94
-15.8
-10.35
-4.93
0.2
4.89
9.01
12.48
15.28
17.51
19.42
21.35
23.66
26.54
29.95
33.61
37.02
39.64
41
40.81
39.03
35.7
30.88
24.52
16.48
6.75
-4.32
-15.89
-26.72
-35.48
-41.12
-43.14
-41.66
-37.35
-31.15
-24.06
-17.07
-10.99
-6.33
-3.15
-1.05
0.66
2.58
4.94
7.42
9.4
10.28
9.9
8.57
6.91
5.41
4.18
3
1.48
-0.67
-3.46
-6.76
-10.4
-14.26
-18.15
-21.74
-24.45
-25.72
-25.15
-22.77
-19.07
-14.82
-10.8
-7.5
-5.1
-3.41
-2.08
-0.7
1.02
3.25
5.88
8.65
11.15
13.02
14
14.01
13.14
11.55
9.41
6.84
4.04
1.29
-0.95
-2.18
-2.07
-0.61
1.79
4.5
6.85
8.46
9.26
9.55
9.72
10.09
10.75
11.6
12.42
12.98
13.18
13.03
12.65
12.14
11.51
10.56
8.97
6.3
2.29
-2.99
-9.01
-14.84
-19.46
-22.2
-23.02
-22.68
-22.43
-23.45
-26.37
-31
-36.47
-41.72
-45.9
-48.54
-49.62
-49.42
-48.44
-47.29
-46.47
-46.1
-45.7
-44.31
-40.85
-34.78
-26.63
-17.98
-11.02
-7.51
-8
-11.36
-14.96
-15.4
-9.5
4.54
26.4
53.35
80.84
103.81
118.4
123.1
119.12
109.52
97.95
87.53
80.1
76.43
76.41
79.38
84.12
88.91
91.77
91.06
86.16
77.82
67.91
58.94
53.26
52.37
56.44
63.85
71.1
73.43
66.08
46.18
14.21
-25.76
-67.21
-103.59
-130.58
-147.12
-155.05
-157.5
-157.23
-155.81
-153.68
-150.88
-147.36
-143.05
-137.6
-130.03
-118.77
-102
-78.27
-47.22
-10.28
29.22
66.57
96.95
117.01
125.89
125.17
117.79
106.34
92.07
74.8
54
30.06
4.61
-20.11
-42.65
-63.13
-83.01
-103.88
-126.09
-148
-166.34
-177.46
-178.88
-170.22
-153.09
-130.35
-105.05
-79.81
-56.64
-37.1
-22.25
-12.34
-6.32
-1.73
4.68
15.77
32.72
54.35
77.58
98.65
114.7
124.71
129.57
131.46
132.77
135.43
140.45
147.87
156.71
165.03
170.17
169.08
158.9
137.49
103.83
58.52
4.03
-55.11
-112.64
-161.59
-195.93
-212.25
-210.81
-195.29
-171.34
-144.43
-118.25
-94.14
-71.68
-49.97
-28.61
-8.03
10.91
27.47
41.24
52.15
60.34
66.11
70.03
73.02
76.17
80.24
84.99
89
90.19
86.79
78.53
67
55.1
45.68
39.94
36.83
33.6
27.45
17.32
4.68
-7.01
-13.9
-13.59
-6.03
7.01
23.29
41.56
61.88
84.9
110.47
136.74
160.19
177
184.73
183.34
175.14
163.63
151.94
141.74
133.08
125.1
116.89
108.18
99.29
90.68
82.47
74.35
65.69
55.93
44.86
32.6
19.5
5.93
-7.7
-20.88
-33.04
-43.62
-52.45
-59.94
-67.22
-75.76
-86.82
-101.06
-118.15
-137.1
-156.6
-175.35
-192.3
-206.55
-217.35
-224.04
-226.27
-224.16
-218.4
-210.04
-200.13
-189.38
-177.93
-165.55
-151.91
-136.97
-121.22
-105.62
-91.33
-79.39
-70.45
-64.61
-61.51
-60.52
-61.01
-62.46
-64.53
-66.94
-69.33
-71.3
-72.38
-72.05
-69.61
-64.05
-54.07
-38.51
-17.05
9.18
37.34
63.5
83.74
95.56
98.56
94.38
85.71
75.06
63.92
52.67
41.11
28.97
16.34
3.47
-9.56
-22.92
-36.7
-50.41
-62.59
-71
-73.4
-68.52
-56.71
-39.91
-20.96
-2.7
12.86
24.83
33.36
39.21
43.39
46.81
50.18
53.84
57.84
61.9
65.63
68.59
70.39
70.74
69.49
66.77
63.1
59.37
56.61
55.5
56.04
57.37
58.09
56.85
52.93
46.44
38.31
29.73
21.7
14.78
9.13
4.77
1.85
0.75
1.92
5.65
11.79
19.77
28.6
37.21
44.64
50.24
53.76
55.43
55.81
55.65
55.64
56.17
57.18
58.22
58.68
58.07
56.34
53.96
51.79
50.84
51.94
55.42
61.09
68.24
75.82
82.7
88.01
91.24
92.34
91.47
88.76
84.04
76.87
66.72
53.27
36.6
17.22
-3.93
-25.66
-46.58
-65.16
-79.96
-90.01
-95.22
-96.6
-96.21
-96.58
-99.96
-107.55
-119.12
-133.07
-146.91
-157.9
-163.85
-163.59
-157.17
-145.77
-131.29
-115.73
-100.8
-87.47
-75.89
-65.34
-54.38
-41.09
-23.62
-0.68
27.86
60.65
94.95
127.21
153.93
172.57
182.03
182.56
175.36
161.81
142.91
119.28
91.56
61.24
31.07
4.77
-14.08
-23.39
-23.57
-17.33
-8.46
-0.17
6.07
10.57
14.56
18.94
23.65
27.89
30.8
32.25
32.86
33.41
34.15
34.38
32.78
28.09
19.88
8.94
-2.93
-13.5
-20.89
-24.21
-23.8
-21.17
-18.45
-17.74
-20.47
-26.94
-36.46
-47.71
-59.27
-70.05
-79.46
-87.37
-93.85
-99.05
-103.1
-106.11
-108.31
-109.88
-110.93
-111.39
-110.97
-109.36
-106.35
-102.06
-96.91
