0
0
0
0
0
0
0
0
0
0
0
0.01
0.01
0
-0.03
-0.05
-0.05
0
0.13
0.36
0.66
1.01
1.37
1.72
2.06
2.4
2.79
3.24
3.8
4.42
5.06
5.66
6.2
6.68
7.15
7.68
8.31
9.14
10.09
11.04
11.88
12.56
13.14
13.76
14.65
15.96
17.91
20.32
22.9
25.38
27.58
29.57
31.68
34.32
37.81
42.54
48.15
54.1
59.83
64.97
69.58
74.14
79.34
85.71
93.76
103
112.62
121.73
129.77
136.75
143.3
150.75
157.77
166.64
177.95
191.79
206.97
220.57
228.25
225.36
208.53
176.87
132.76
80.05
23.07
-34.94
-92.44
-149.16
-205.23
-260.37
-313.74
-363.87
-409.82
-450.88
-486.46
-515.68
-537.14
-549.1
-549.8
-538.16
-513.95
-478.36
-433.51
-382.02
-326.52
-269.28
-212
-155.96
-102.17
-51.52
-4.97
36.6
72.54
102.57
126.83
145.83
160.28
170.88
178.27
182.83
184.86
184.59
182.29
178.31
173.04
166.92
160.28
153.37
146.33
139.25
132.14
125.07
118.1
111.29
104.71
98.43
92.46
86.84
81.57
76.65
72.11
67.93
64.14
60.74
57.73
55.12
52.9
51.06
49.58
48.44
47.57
46.89
46.27
45.56
44.58
43.16
41.13
38.37
34.79
30.39
25.21
19.37
13.08
6.58
0.14
-5.97
-11.49
-16.22
-20.03
-22.84
-24.62
-25.45
-25.43
-24.71
-23.43
-21.74
-19.78
-17.65
-15.42
-13.11
-10.77
-8.41
-6.03
-3.62
-1.16
1.37
3.97
6.68
9.51
12.42
15.39
18.4
21.47
24.61
27.85
31.21
34.76
38.56
42.53
46.64
50.87
55.22
59.68
64.3
69.1
74.15
79.54
85.11
90.77
96.46
102.16
107.83
113.48
119.12
124.76
130.48
135.99
141.09
145.55
149.15
151.61
152.55
151.49
147.69
142.5
136.38
129.67
122.58
115.32
108.05
100.89
93.99
87.5
81.6
76.1
70.93
66.02
61.32
56.82
52.49
48.36
44.48
40.93
37.57
34.34
31.2
28.14
25.19
22.34
19.62
17.09
14.78
12.63
10.57
8.6
6.7
4.91
3.24
1.72
0.41
-0.67
-1.54
-2.24
-2.78
-3.18
-3.46
-3.63
-3.71
-3.71
-3.63
-3.48
-3.3
-3.08
-2.85
-2.6
-2.38
-2.18
-2.03
-1.95
-1.96
-2.08
-2.3
-2.63
-3.05
-3.55
-4.13
-4.78
-5.51
-6.31
-7.17
-8.06
-8.93
-9.74
-10.44
-11.03
-11.52
-11.95
-12.35
-12.72
-13.05
-13.32
-13.5
-13.55
-13.53
-13.48
-13.52
-13.75
-14.22
-14.91
-15.75
-16.64
-17.53
-18.45
-19.55
-21.03
-23.07
-25.72
-28.92
-32.42
-35.99
-39.43
-42.81
-46.4
-50.61
-55.79
-62.08
-69.3
-76.98
-84.62
-91.87
-98.78
-105.78
-113.54
-122.67
-133.42
-145.59
-158.59
-171.77
-184.66
-197.23
-209.85
-223.14
-237.97
-255.26
-275.87
-300.09
-327.12
-354.6
-378.79
-395.51
-401.41
-395.34
-378.53
-354.07
-325.58
-295.91
-266.61
-238.23
-210.95
-185.13
-161.48
-140.55
-122.44
-106.58
-92.08
-78.18
-64.54
-51.41
-39.35
-28.97
-20.5
-13.71
-7.89
-2.16
4.14
11.27
18.88
26.2
32.42
37.01
39.94
41.58
42.58
43.35
44.08
44.55
44.38
43.25
41.08
38.07
34.62
31.21
28.14
25.51
23.07
20.45
17.23
13.14
8.2
2.63
-3.08
-8.37
-12.66
-15.45
-16.42
-15.39
-12.45
-7.92
-2.31
3.72
9.54
14.65
18.9
22.37
25.39
28.21
30.98
33.6
35.82
37.43
38.37
38.82
39
39.2
39.51
39.96
40.5
41.06
41.6
42
42.16
41.91
41.23
40.14
38.74
37.14
35.32
33.28
30.94
28.26
25.26
22
18.51
14.81
10.97
7
3.1
-0.7
-4.34
-8.04
-12.06
-16.56
-21.45
-26.11
-29.71
-31.3
-30.38
-26.96
-21.62
-15.22
-8.56
-2.19
3.73
9.14
14.11
18.53
22.2
25.05
27.08
28.57
29.89
31.43
33.29
35.37
37.3
38.71
39.44
39.62
39.7
40.02
40.78
41.73
42.42
42.43
41.51
39.9
37.91
35.94
34.07
32.18
29.94
27.13
23.68
19.73
15.58
11.48
7.7
4.3
1.24
-1.67
-4.77
-8.4
-12.86
-18.1
-23.87
-29.44
-33.98
-36.75
-37.26
-35.48
-31.7
-26.48
-20.33
-13.8
-7.26
-1.04
4.52
9.22
12.93
15.74
17.8
19.39
20.63
21.57
22.2
22.5
22.61
22.72
23.18
24.09
25.46
27
28.37
29.3
29.6
29.31
28.54
27.39
25.96
24.25
22.31
20.11
17.8
15.38
12.95
10.49
7.94
5.26
2.41
-0.5
-3.38
-6.05
-8.63
-11.29
-14.4
-18.28
-22.96
-28.03
-32.67
-35.96
-37.04
-35.69
-32.1
-26.94
-21.01
-14.99
-9.28
-4
0.83
5.27
9.16
12.27
14.41
15.46
15.67
15.37
15.09
15.14
15.72
16.66
17.67
18.47
18.88
18.94
18.7
18.33
17.82
17.16
16.31
15.24
14.03
12.7
11.37
10
8.51
6.71
4.48
1.77
-1.33
-4.53
-7.6
-10.24
-12.54
-14.75
-17.36
-20.87
-25.48
-30.98
-36.58
-41.23
-43.86
-43.81
-40.98
-35.79
-29.04
-21.56
-14.14
-7.3
-1.46
3.22
6.72
9.25
11.2
12.96
14.88
17.05
19.42
21.76
23.89
25.68
27.1
28.17
28.94
29.62
30.3
31.09
31.94
32.63
32.94
32.63
31.68
30.19
28.45
26.71
25.11
23.64
22.16
20.49
18.39
15.76
12.43
8.44
3.93
-0.87
-5.66
-10.29
-14.66
-19
-23.55
-28.58
-34.17
-40.08
-45.69
-50.11
-52.46
-51.95
-48.38
-42.06
-33.85
-24.8
-15.88
-7.71
-0.44
5.97
11.72
16.75
20.96
24.24
26.55
28.14
29.34
30.57
32.06
33.84
35.67
37.21
38.16
38.31
37.79
36.81
35.77
34.89
34.25
33.7
32.89
31.56
29.63
27.34
25.11
23.41
22.43
22.01
21.68
20.78
18.94
16.06
12.56
8.95
5.72
3.03
0.64
-1.79
-4.69
-8.27
-12.7
-17.91
-23.82
-30.1
-36.22
-41.46
-44.95
-46.06
-44.36
-40.07
-33.73
-26.19
-18.37
-10.98
-4.55
0.88
5.37
9.23
12.6
15.54
18.12
20.35
22.45
24.54
26.69
28.68
30.21
31.03
31.17
31.03
31.09
31.7
32.81
34.04
34.85
34.8
33.72
31.68
28.99
25.94
22.97
20.39
18.47
17.22
16.38
15.58
14.38
12.65
10.39
7.9
5.43
3.06
0.72
-1.81
-4.65
-7.86
-11.33
-15.11
-19.27
-23.93
-29.11
-34.44
-39.17
-42.31
-43.02
-40.83
-36.03
-29.38
-21.92
-14.64
-8.1
-2.58
2.02
5.78
8.8
11.04
12.45
13.1
13.16
13.03
13.12
13.8
15.21
17.22
19.44
21.37
22.64
23.11
23
22.67
22.47
22.43
22.33
21.8
20.52
18.59
16.32
14.25
12.66
11.52
10.35
8.55
5.72
1.77
-2.91
-7.76
-12.17
-15.84
-18.79
-21.34
-23.97
-27.06
-30.84
-35.18
-39.75
-43.97
-47.12
-48.62
-47.97
-45.11
-40.17
-33.69
-26.29
-18.65
-11.34
-4.71
0.97
5.71
9.57
12.82
15.63
18.19
20.51
22.41
23.77
24.48
24.7
24.62
24.64
24.92
25.43
25.96
26.16
25.95
25.31
24.49
23.65
22.86
21.97
20.71
19.06
17.06
15.13
13.56
12.55
11.87
11.08
9.69
7.33
4.11
0.31
-3.5
-6.96
-9.83
-12.17
-14.29
-16.51
-19.21
-22.58
-26.67
-31.14
-35.48
-38.91
-40.7
-40.33
-37.6
-32.87
-26.7
-19.99
-13.36
-7.37
-2.22
2.14
5.81
8.99
11.75
14.14
16.12
17.75
19.05
20.09
20.94
21.62
22.24
22.82
23.47
24.21
25.05
25.97
26.83
27.56
27.99
28.02
27.45
26.15
24.01
21.16
17.92
14.72
12.02
9.9
8.26
6.71
4.88
2.64
0.07
-2.5
-4.85
-6.88
-8.79
-10.88
-13.4
-16.56
-20.33
-24.68
-29.36
-34.08
-38.24
-41.19
-42.31
-41.28
-38.22
-33.56
-27.98
-21.95
-15.84
-9.85
-4.21
0.78
4.82
7.61
9.29
10.05
10.38
10.61
10.91
11.25
11.48
11.55
11.43
11.33
11.41
11.89
12.82
14
15.13
15.76
15.67
14.82
13.53
12.19
11.05
10.14
9.15
7.72
5.52
2.52
-1.1
-4.99
-8.78
-12.33
-15.52
-18.42
-21.06
-23.61
-26.17
-28.97
-32.11
-35.57
-39.05
-41.89
-43.41
-42.92
-40.22
-35.53
-29.41
-22.65
-15.88
-9.57
-3.87
1.08
5.33
8.84
11.64
13.81
15.44
16.72
17.79
18.79
19.72
20.56
21.23
21.66
21.91
22.12
22.55
23.32
24.42
25.5
26.09
25.75
24.26
21.85
18.96
16.18
13.83
12.02
10.51
8.92
6.89
4.14
0.73
-3.23
-7.34
-11.28
-14.89
-18.16
-21.4
-24.93
-29.05
-33.65
-38.4
-42.56
-45.45
-46.5
-45.47
-42.48
-37.85
-32.07
-25.6
-18.91
-12.42
-6.46
-1.37
2.81
6.12
8.85
11.28
13.71
16.24
18.8
21.26
23.39
25.23
26.73
28.07
29.33
30.59
31.84
32.87
33.48
33.37
32.41
30.6
28.18
25.53
22.99
20.76
18.75
16.76
14.52
12
9.26
6.45
3.7
0.96
-1.79
-4.65
-7.47
-10.13
-12.5
-14.76
-17.31
-20.61
-24.97
-30.1
-35.29
-39.33
-41.16
-40.15
-36.38
-30.56
-23.72
-16.85
-10.48
-4.77
0.43
5.25
9.59
13.22
15.86
17.52
18.45
19.22
20.24
21.73
23.49
25.07
26.13
26.47
26.26
25.79
25.45
25.39
25.59
25.84
25.82
25.29
24.13
22.51
20.72
19.17
18.08
17.39
16.8
15.84
14.24
12.01
9.52
7.15
5.17
3.52
1.85
-0.2
-2.94
-6.33
-10.26
-14.56
-19.17
-24.13
-29.3
-34.34
-38.52
-41.08
-41.34
-39.14
-34.84
-29.19
-23.09
-17.19
-11.84
-7.01
-2.62
1.43
5.08
8.07
10.26
11.51
11.93
11.75
11.39
11.17
11.4
12.19
13.43
14.91
16.29
17.32
17.75
17.52
16.57
14.91
12.61
9.8
6.79
3.87
1.33
-0.8
-2.73
-4.77
-7.23
-10.07
-13.05
-15.63
-17.43
-18.3
-18.46
-18.43
-18.8
-20.09
-22.48
-25.77
-29.33
-32.43
-34.31
-34.47
-32.86
-29.64
-25.26
-20.1
-14.56
-8.94
-3.6
1.11
4.94
7.81
9.98
11.89
14.09
16.85
20.12
23.46
26.23
27.88
28.06
26.86
24.55
21.59
18.42
15.35
12.54
10.02
7.84
6
4.56
3.41
2.39
1.21
-0.47
-2.74
-5.52
-8.45
-11.18
-13.46
-15.41
-17.4
-19.88
-23.19
-27.38
-32.19
-37.1
-41.53
-44.89
-46.66
-46.56
-44.42
-40.41
-34.84
-28.32
-21.37
-14.49
-7.99
-1.97
3.59
8.77
13.56
17.92
21.68
24.65
26.77
28.06
28.78
29.17
29.55
29.94
30.39
30.7
30.75
30.48
29.88
29.07
28.08
27.02
25.84
24.56
23.09
21.31
19.1
16.35
13.09
9.4
5.49
1.5
-2.47
-6.44
-10.56
-14.9
-19.57
-24.59
-29.99
-35.68
-41.36
-46.47
-50.14
-51.53
-49.99
-45.51
-38.63
-30.47
-22.21
-14.74
-8.42
-3.08
1.76
6.56
11.44
16.18
20.3
23.38
25.2
25.93
26.05
26.01
26.13
26.38
26.6
26.54
26.18
25.73
25.49
25.69
26.22
26.76
26.82
25.91
23.86
20.77
17.03
13.09
9.38
6.07
3.08
0.16
-3.05
-6.79
-11.18
-16.1
-21.43
-26.86
-32.08
-36.61
-39.78
-40.92
-39.46
-35.32
-28.87
-20.98
-12.66
-4.83
1.89
7.22
11.1
13.64
14.93
15.28
15.17
15.13
15.76
17.43
20.19
23.61
27
29.51
30.48
29.68
27.29
23.99
20.6
17.96
16.51
16.32
16.93
17.65
17.83
17.02
15.16
12.51
9.54
6.63
4
1.64
-0.66
-3.12
-6
-9.42
-13.44
-17.92
-22.53
-26.77
-30.03
-31.76
-31.54
-29.29
-25.15
-19.51
-12.84
-5.74
1.17
7.32
12.2
15.54
17.28
17.72
17.29
16.46
15.61
14.9
14.32
13.7
12.93
11.89
10.7
9.56
8.71
8.3
8.24
8.25
7.8
6.47
3.94
0.26
-4.18
-8.83
-13.06
-16.48
-19.02
-21.06
-23.26
-26.41
-31.12
-37.48
-45
-52.53
-58.78
-62.62
-63.75
-62.76
-60.99
-60
-60.77
-63.35
-66.57
-68.79
-68.53
-65.27
-59.96
-54.65
-51.8
-53.14
-58.84
-66.8
-73.11
-72.88
-61.72
-37.46
-1.44
40.98
81.46
110.86
122.11
112.52
84.79
46.18
6.23
-25.74
-43.01
-42.45
-24.9
5.6
42.67
79
107.83
124.22
126.35
115.48
95.31
70.45
44.87
21.07
-0.09
-18.59
-34.62
-47.58
-56.24
-58.96
-54.36
-42.05
-22.91
0.68
25.41
47.44
63.52
71.64
71.61
65.01
54.6
43.49
34.19
28.16
25.58
25.81
27.69
29.88
31.3
31.07
28.89
24.87
19.8
14.69
10.56
8.06
7.17
7.36
7.63
7.09
5.16
1.8
-2.59
-7.35
-11.87
-15.89
-19.42
-22.83
-26.54
-30.86
-35.8
-40.87
-45.25
-47.84
-47.75
-44.42
-38.09
-29.59
-20.11
-10.91
-2.79
3.87
9.23
13.51
17.06
20.03
22.47
24.44
26.01
27.4
28.74
30.17
31.59
32.85
33.72
33.99
33.73
33.05
32.27
31.57
30.99
30.27
29
26.84
23.66
19.73
15.49
11.54
8.12
5.22
2.48
-0.63
-4.43
-9.1
-14.37
-20.04
-25.8
-31.46
-36.81
-41.48
-44.94
-46.41
-45.37
-41.53
-35.31
-27.46
-18.96
-10.78
-3.45
2.74
7.89
12.08
15.44
17.99
19.7
20.57
20.64
20.14
19.31
18.56
18.08
17.94
17.99
17.99
17.86
17.73
18.04
19.13
21.17
23.83
26.46
28.42
29.13
28.54
26.79
24.31
21.38
18.17
14.69
10.78
6.37
1.35
-4.03
-9.38
-14.08
-17.56
-19.63
-20.54
-20.99
-21.66
-22.94
-24.51
-25.66
-25.58
-23.83
-20.61
-16.49
-12.17
-7.95
-3.9
0.21
4.4
8.35
11.55
13.38
13.6
12.27
9.92
7.18
4.76
3.29
3.16
4.63
7.67
12.06
17.19
22.35
26.74
29.75
31.06
30.63
28.77
25.88
22.44
18.69
14.77
10.65
6.25
1.57
-3.25
-7.9
-12.16
-15.82
-18.93
-21.76
-24.56
-27.62
-31.02
-34.64
-38.14
-41.11
-43.05
-43.51
-42.21
-39
-34.14
-28.05
-21.42
-14.85
-8.85
-3.76
0.31
3.32
5.38
6.58
7.19
7.51
7.83
8.34
9.1
10.02
10.93
11.77
12.47
13.08
13.65
14.18
14.71
15.28
15.99
16.82
17.69
18.27
18.21
17.25
15.26
12.4
8.89
5.09
1.23
-2.46
-5.86
-8.98
-11.94
-15.05
-18.58
-22.75
-27.37
-31.96
-35.75
-37.99
-38.21
-36.26
-32.49
-27.35
-21.47
-15.38
-9.64
-4.77
-1.15
1.01
1.9
1.97
1.96
2.49
3.96
6.36
9.37
12.56
15.58
18.29
20.68
22.83
24.67
26.02
26.7
26.62
25.95
25.04
24.32
23.95
23.9
23.72
22.88
21.03
18.06
14.26
10.06
5.97
2.23
-1.12
-4.2
-7.31
-10.68
-14.6
-19.2
-24.51
-30.2
-35.63
-39.95
-42.33
-42.23
-39.54
-34.7
-28.31
-21.18
-13.99
-7.3
-1.53
3.1
6.59
9.26
11.46
13.51
15.41
16.83
17.29
16.36
14.08
10.8
7.23
4.05
1.77
0.64
0.64
1.7
3.62
6.16
8.86
11.16
12.48
12.45
11.09
8.77
6.15
3.74
1.83
0.3
-1.27
-3.41
-6.56
-10.82
-16.08
-21.83
-27.45
-32.24
-35.61
-37.21
-36.92
-34.87
-31.24
-26.37
-20.55
-14.2
-7.85
-2.01
2.84
6.53
9.14
11.01
12.41
13.51
14.31
14.66
14.63
14.33
14.1
14.13
14.49
15.04
15.59
16.02
16.25
16.33
16.17
15.67
14.54
12.58
9.71
6.06
1.88
-2.53
-6.77
-10.63
-13.89
-16.6
-19.03
-21.55
-24.58
-28.17
-32.1
-35.68
-38.22
-39.21
-38.55
-36.5
-33.39
-29.54
-25.01
-19.87
-14.15
-8.14
-2.24
3.17
7.82
11.69
14.8
17.27
19.08
20.26
20.91
21.18
21.37
21.62
22
22.2
21.92
20.86
18.99
16.65
14.43
13.02
12.73
13.51
14.77
15.68
15.44
13.47
9.74
4.54
-1.41
-7.46
-13.03
-17.85
-21.96
-25.59
-29.03
-32.36
-35.5
-38.02
-39.38
-39.05
-36.66
-32.2
-25.95
-18.61
-10.92
-3.83
2.01
6.2
8.81
10.3
11.32
12.56
14.42
17.05
20.13
23.28
26.07
28.16
29.45
29.91
29.71
28.91
27.75
26.39
25
23.74
22.64
21.69
20.74
19.68
18.29
16.45
14.08
11.26
8.29
5.49
3.24
1.61
0.41
-0.92
-3.02
-6.28
-10.81
-16.17
-21.72
-26.6
-30.13
-31.84
-31.48
-29.08
-24.86
-19.38
-13.26
-7.36
-2.34
1.35
3.59
4.69
5.09
5.28
5.54
5.98
6.48
6.95
7.33
7.66
8.11
8.79
9.81
11.13
12.69
14.3
15.67
16.46
16.25
14.85
12.26
8.88
5.28
2.01
-0.63
-2.67
-4.24
-5.61
-6.82
-7.95
-9.08
-10.58
-13.01
-16.84
-22.22
-28.63
-35.14
-40.4
-43.41
-43.57
-40.93
-35.99
-29.43
-21.91
-13.85
-5.71
2.17
9.31
15.19
19.42
21.83
22.65
22.31
21.44
20.57
20.03
19.9
20.01
20.22
20.34
20.37
20.21
19.86
19.17
18.01
16.37
14.35
12.33
10.63
9.66
9.46
9.87
10.44
10.57
9.73
7.57
4.14
-0.27
-5.09
-9.79
-14.05
-17.87
-21.52
-25.28
-29.27
-33.17
-36.41
-38.23
-37.98
-35.46
-30.81
-24.55
-17.22
-9.39
-1.45
6.22
13.22
19.2
23.83
27.03
28.8
29.37
28.84
27.38
25.1
22.2
19.04
16.11
13.96
12.9
13.09
14.33
16.18
18.19
19.94
21.33
22.3
22.99
23.34
23.17
22.15
19.91
16.36
11.61
6.16
0.55
-4.64
-9.04
-12.57
-15.33
-17.69
-19.98
-22.64
-25.77
-29.24
-32.51
-34.81
-35.39
-33.75
-29.88
-24.17
-17.38
-10.28
-3.52
2.44
7.4
11.22
13.91
15.37
15.58
14.43
11.94
8.23
3.67
-1.02
-5.01
-7.34
-7.45
-5.25
-1.2
3.81
8.88
13.27
16.69
19.09
20.65
21.38
21.18
19.85
17.23
13.41
8.66
3.52
-1.68
-6.72
-11.65
-16.63
-21.64
-26.53
-30.87
-34.28
-36.49
-37.58
-37.75
-37.19
-35.95
-33.79
-30.58
-26.26
-21.2
-16
-11.34
-7.71
-5.16
-3.49
-2.19
-0.96
0.45
1.96
3.45
4.89
6.38
8.22
10.57
13.49
16.72
19.92
22.69
24.83
26.34
27.33
27.99
28.37
28.43
27.89
26.46
23.96
20.34
15.93
11.12
6.36
1.84
-2.43
-6.64
-10.94
-15.3
-19.51
-23.25
-26.38
-28.78
-30.45
-31.27
-30.95
-29.24
-25.97
-21.35
-15.83
-10.05
-4.49
0.56
5.02
8.89
12.07
14.39
15.55
15.49
14.33
12.5
10.69
9.53
9.49
10.6
12.62
15
17.21
18.84
19.72
19.92
19.59
19.01
18.25
17.38
16.2
14.47
12
8.68
4.64
0.12
-4.51
-9
-13.15
-16.85
-20.06
-22.74
-24.91
-26.5
-27.5
-27.68
-26.87
-24.83
-21.56
-17.35
-12.68
-8.12
-4.06
-0.6
2.45
5.29
7.99
10.39
12.1
12.87
12.56
11.51
10.2
9.23
9.01
9.65
10.94
12.43
13.73
14.45
14.5
13.97
13.12
12.33
11.91
12.11
12.9
14.03
14.97
15.15
14.15
11.81
8.42
4.46
0.56
-2.97
-6.04
-8.98
-12.31
-16.42
-21.45
-26.95
-32.12
-35.88
-37.36
-36.16
-32.43
-26.86
-20.26
-13.44
-6.82
-0.67
5.03
10.22
14.72
18.31
20.77
22.09
22.38
22.02
21.35
20.64
20.02
19.5
19.13
18.9
18.88
18.99
18.97
18.36
16.62
13.5
9.06
3.87
-1.33
-5.71
-8.85
-10.68
-11.43
-11.52
-11.2
-10.64
-9.81
-8.84
-7.94
-7.44
-7.71
-8.85
-10.83
-13.17
-15.44
-17.07
-17.77
-17.4
-15.97
-13.58
-10.31
-6.33
-1.83
2.75
6.86
9.82
11.02
10.33
8.07
5.2
2.78
1.8
2.72
5.44
9.41
13.85
18.1
21.59
24.09
25.44
25.65
24.86
23.29
21.28
19.05
16.84
14.61
12.37
9.9
6.97
3.4
-0.96
-5.92
-11.13
-15.96
-19.96
-22.84
-24.76
-26.18
-27.51
-28.93
-30.2
-30.84
-30.28
-28.25
-24.8
-20.29
-15.24
-10.09
-5.3
-1.17
2.04
4.21
5.45
6.04
6.52
7.41
9.18
11.85
15.16
18.47
20.99
22.1
21.47
19.31
16.14
12.77
9.88
7.88
6.8
6.29
5.94
5.4
4.64
3.76
3.08
2.78
2.87
3.13
3.11
2.39
0.46
-2.91
-7.73
-13.54
-19.5
-24.53
-27.57
-28.08
-26.04
-22.11
-17.17
-12.16
-7.73
-4.21
-1.68
0.02
1.08
1.9
2.88
4.37
6.54
9.19
11.89
14.02
15.18
15.18
14.23
12.65
10.8
8.94
7.08
5.25
3.38
1.55
-0.22
-1.84
-3.25
-4.4
-5.2
-5.59
-5.45
-4.88
-4.08
-3.51
-3.67
-4.97
-7.52
-10.93
-14.48
-17.16
-18.2
-17.12
-14.02
-9.44
-4.11
1.25
6.24
10.59
14.26
17.2
19.29
20.43
20.56
19.82
18.43
16.86
15.45
14.49
14.05
14.02
14.19
14.26
14.15
13.72
13.05
12.16
10.99
9.51
7.67
5.56
3.31
1.21
-0.64
-2.16
-3.4
-4.51
-5.61
-6.95
-8.67
-11.01
-13.95
-17.28
-20.44
-22.69
-23.37
-22.1
-19.05
-14.65
-9.61
-4.51
0.18
4.13
7.21
9.35
10.68
11.38
11.71
11.77
11.58
11.11
10.34
9.5
8.79
8.58
8.83
9.36
9.78
9.73
9.09
7.9
6.47
4.97
3.52
2.01
0.27
-1.77
-4.14
-6.7
-9.36
-12.05
-14.88
-17.99
-21.5
-25.34
-29.18
-32.54
-34.81
-35.59
-34.6
-31.94
-27.89
-22.81
-17.18
-11.31
-5.66
-0.56
3.55
6.34
7.7
7.65
6.53
4.72
2.65
0.56
-1.41
-3.23
-4.91
-6.34
-7.44
-7.99
-7.9
-7.03
-5.4
-3.05
-0.12
3.09
6.16
8.46
9.48
8.7
5.94
1.34
-4.68
-11.34
-17.79
-23.03
-26.33
-27.05
-25.08
-20.63
-14.31
-7.09
0.05
6.17
10.68
13.24
13.87
12.77
10.18
6.44
1.95
-2.73
-7.09
-10.5
-12.68
-13.54
-13.29
-12.34
-11.01
-9.55
-7.97
-6.3
-4.52
-2.76
-1.23
-0.2
0.1
-0.37
-1.65
-3.63
-6.24
-9.38
-12.93
-16.71
-20.32
-23.4
-25.45
-26.25
-25.7
-23.91
-21.05
-17.23
-12.54
-7.01
-0.89
5.51
11.61
16.89
20.98
23.74
25.32
26
26.16
26.03
25.79
25.38
24.68
23.45
21.46
18.67
15.13
11.16
7.04
3.07
-0.59
-3.87
-6.66
-8.87
-10.3
-11.05
-11.33
-11.68
-12.64
-14.43
-16.92
-19.48
-21.44
-22.17
-21.54
-19.67
-16.85
-13.37
-9.27
-4.57
0.75
6.41
11.98
16.86
20.45
22.46
22.84
22.02
20.55
19.17
18.38
18.39
19.06
19.97
20.71
20.85
20.29
18.98
17.1
14.81
12.25
9.55
6.82
4.26
1.93
-0.04
-1.81
-3.58
-5.57
-7.82
-10.02
-11.62
-11.91
-10.5
-7.3
-2.75
2.49
7.77
12.56
16.64
19.76
21.73
22.24
21.12
18.41
14.42
9.88
5.51
2.1
0.19
0.12
1.94
5.42
10.11
15.31
20.3
24.24
26.52
26.67
24.58
20.39
14.55
7.7
0.59
-5.95
-11.41
-15.42
-18.1
-19.82
-21.2
-22.83
-25.04
-27.89
-30.93
-33.62
-35.29
-35.37
-33.63
-30.05
-24.92
-18.67
-11.89
-5.15
0.95
5.89
9.39
11.34
12.03
11.81
11.22
10.55
10.03
9.55
8.97
8.24
7.42
6.79
6.52
6.8
7.46
8.21
8.65
8.46
7.61
6.18
4.53
2.91
1.5
0.23
-1.11
-2.79
-5.07
-7.87
-10.99
-13.89
-16.05
-17.06
-16.77
-15.34
-12.99
-10.11
-6.88
-3.54
-0.25
2.83
5.5
7.73
9.61
11.44
13.44
15.78
18.28
20.51
21.94
22.09
20.84
18.36
15.24
12.06
9.37
7.41
6.05
5.06
4.06
2.95
1.71
0.56
-0.36
-1.02
-1.53
-2.2
-3.23
-4.93
-7.35
-10.5
-14.1
-17.68
-20.57
-21.94
-21.19
-17.99
-12.65
-5.84
1.47
8.41
14.42
19.26
23.02
25.84
27.97
29.49
30.49
31.04
31.11
30.73
29.79
28.26
26.07
23.3
20.1
16.64
13.17
9.8
6.65
3.59
0.53
-2.77
-6.41
-10.29
-14.07
-17.18
-19.15
-19.7
-19.15
-18.21
-17.93
-19.12
-21.98
-26.01
-30.05
-32.99
-33.99
-32.99
-30.47
-27.16
-23.63
-20.01
-16.16
-11.82
-7.07
-2.27
1.95
5.03
6.8
7.6
8.17
9.26
11.37
14.41
17.92
21.2
23.61
24.88
24.99
24.17
22.53
20.22
17.28
13.89
10.28
6.76
3.56
0.65
-2.07
-4.81
-7.73
-10.92
-14.49
-18.51
-23.03
-27.8
-32.36
-35.98
-38.01
-38.13
-36.41
-33.26
-29.12
-24.33
-19.01
-13.31
-7.53
-2.13
2.26
5.31
7.02
7.95
8.84
10.51
13.46
17.78
23.17
28.96
34.34
38.4
40.36
39.68
36.27
30.57
23.51
16.32
10.12
5.7
3.16
2.16
1.98
1.81
1.06
-0.71
-3.59
-7.47
-11.83
-15.84
-18.41
-18.53
-15.71
-10.2
-3.09
4.19
10.2
14.2
16.27
17.18
18.02
19.65
22.39
25.76
28.86
30.52
29.88
26.67
21.31
14.85
8.63
3.96
1.52
1.35
2.69
4.36
5.22
4.52
2.29
-0.92
-4.07
-6.33
-7.26
-7.03
-6.41
-6.33
-7.65
-10.74
-15.47
-21.14
-26.77
-31.33
-33.91
-34.03
-31.54
-26.81
-20.41
-13.21
-6.13
-0.07
4.24
6.46
6.64
5.39
3.48
1.82
1.01
1.19
2.16
3.49
4.87
6.05
7.1
7.95
8.52
8.63
8.09
6.93
5.39
4.06
3.46
4.06
5.9
8.53
11.15
12.72
12.48
10.11
6.07
1.32
-2.91
-5.53
-6.02
-4.33
-1
3.34
7.94
12.23
15.69
17.83
18.31
16.85
13.54
8.71
3.09
-2.48
-7.15
-10.22
-11.33
-10.4
-7.82
-4.17
-0.38
2.61
3.97
3.15
0.2
-4.42
-9.76
-14.84
-18.8
-21.26
-22.38
-22.66
-22.79
-23.21
-24.08
-25.03
-25.59
-25.21
-23.61
-20.89
-17.31
-13.29
-9.09
-5
-1.08
2.43
5.34
7.45
8.65
9.07
8.93
8.58
8.27
8.13
8.09
8.03
7.83
7.45
7.03
6.66
6.41
6.1
5.39
3.89
1.24
-2.57
-7.31
-12.4
-17.3
-21.56
-24.94
-27.38
-28.86
-29.32
-28.54
-26.45
-22.98
-18.37
-13.03
-7.43
-2.02
2.92
7.23
10.94
13.99
16.37
18.05
18.98
19.25
18.95
18.3
17.44
16.59
15.84
15.17
14.52
13.66
12.42
10.53
7.93
4.66
0.85
-3.31
-7.76
-12.46
-17.56
-23.03
-28.7
-33.99
-38.08
-40.16
-39.68
-36.62
-31.42
-24.93
-17.86
-10.87
-4.3
1.65
6.85
11.28
14.9
17.89
20.33
22.34
23.85
24.67
24.64
23.71
22.1
20.06
17.91
15.71
13.46
11.09
8.59
6.16
4.02
2.44
1.45
0.95
0.55
-0.23
-1.85
-4.67
-8.68
-13.59
-18.65
-23
-25.76
-26.39
-24.85
-21.51
-17.12
-12.41
-8.04
-4.32
-1.32
1.09
3.17
5.15
7.18
9.26
11.34
13.18
14.68
15.73
16.28
16.43
16.26
15.98
15.67
15.49
15.34
15.05
14.34
12.97
10.91
8.26
5.43
2.82
0.77
-0.63
-1.6
-2.53
-3.98
-6.33
-9.79
-14.08
-18.66
-22.69
-25.36
-26.08
-24.6
-21.14
-16.11
-10.21
-4.08
1.66
6.54
10.35
13.03
14.85
16.13
17.25
18.34
19.38
20.16
20.43
20.14
19.34
18.37
17.54
17.14
17.21
17.56
17.92
17.95
17.54
16.61
15.33
13.79
12.12
10.27
8.07
5.36
1.97
-2.09
-6.73
-11.52
-15.96
-19.48
-21.51
-21.77
-20.15
-16.99
-12.74
-8.03
-3.43
0.68
3.98
6.51
8.31
9.64
10.73
11.8
12.94
14.08
15.1
15.82
16.18
16.18
15.94
15.55
15.14
14.8
14.52
14.26
13.87
13.22
12.08
10.35
8.06
5.34
2.49
-0.26
-2.66
-4.74
-6.64
-8.71
-11.4
-14.94
-19.31
-23.99
-28.1
-30.56
-30.67
-28.17
-23.42
-17.26
-10.58
-4.19
1.48
6.11
9.6
11.79
12.59
12.1
10.55
8.52
6.56
5.24
4.83
5.36
6.54
7.9
9.04
9.67
9.87
9.81
9.81
9.93
10
9.65
8.48
6.4
3.55
0.46
-2.42
-4.78
-6.65
-8.28
-9.98
-12.02
-14.39
-16.94
-19.24
-20.88
-21.36
-20.41
-17.94
-14.11
-9.32
-3.94
1.56
6.92
11.82
15.92
18.91
20.4
20.37
18.98
16.91
14.85
13.53
13.33
14.21
15.81
17.59
19.14
20.05
20.21
19.58
18.14
15.95
13.06
9.67
6.01
2.44
-0.77
-3.44
-5.6
-7.44
-9.16
-10.94
-12.78
-14.7
-16.61
-18.51
-20.38
-22.08
-23.35
-23.64
-22.49
-19.51
-14.8
-8.87
-2.57
3.2
7.77
10.85
12.59
13.27
13.36
13.16
12.84
12.44
11.83
10.9
9.54
7.81
5.9
4.21
3.1
2.78
3.15
3.79
4.23
4.01
3.13
1.89
0.86
0.62
1.4
3.02
4.76
5.67
4.76
1.47
-4.07
-10.98
-17.7
-22.57
-24.29
-22.51
-17.84
-11.66
-5.56
-0.62
3.06
6.4
11.02
18.74
30.51
45.87
62.35
75.9
82.04
77.42
61.48
36.8
8.49
-17.85
-38.09
-50.75
-57.06
-59.49
-60.43
-60.92
-60.84
-59.46
-56.28
-51.56
-46.02
-40.58
-35.74
-31.78
-28.67
-26.55
-25.84
-27.1
-30.7
-36.32
-42.97
-48.91
-52.45
-52.31
-48.27
-41.11
-32.29
-23.44
-15.77
-9.92
-5.76
-2.82
-0.48
1.77
4.09
6.43
8.48
10.02
10.88
11.15
11.14
11.14
11.48
12.18
13.23
14.34
15.34
15.98
16.11
15.58
14.28
12.23
9.52
6.52
3.48
0.72
-1.8
-4.37
-7.32
-10.87
-14.73
-18.25
-20.45
-20.56
-18.34
-14.2
-9.04
-3.83
0.69
4.3
7.1
9.41
11.44
13.16
14.46
15.13
15.19
14.68
13.82
12.69
11.4
9.97
8.49
7.21
6.34
6.11
6.44
7.09
7.62
7.59
6.79
5.22
3.18
1.03
-0.82
-2.23
-3.28
-4.29
-5.8
-8.19
-11.69
-15.94
-20.22
-23.53
-24.98
-24.09
-20.8
-15.63
-9.18
-2.26
4.59
10.85
16.18
20.36
23.26
25.03
25.82
25.96
25.65
25.09
24.31
23.36
22.26
21.01
19.67
18.26
16.9
15.69
14.76
14.17
13.79
13.45
12.82
11.76
10.16
8.15
5.86
3.4
0.83
-1.97
-5.01
-8.38
-11.94
-15.63
-19.24
-22.53
-25.18
-26.72
-26.78
-25.01
-21.54
-16.7
-11.16
-5.6
-0.57
3.56
6.72
8.88
10.15
10.67
10.67
10.4
10.15
10.21
10.72
11.85
13.51
15.6
17.73
19.45
20.35
20.17
19
17.04
14.7
12.24
9.79
7.37
4.91
2.45
0.04
-2.19
-4.32
-6.43
-8.74
-11.36
-14.18
-16.91
-19.02
-20.01
-19.41
-17.08
-13.12
-7.95
-2.22
3.31
7.95
11.3
13.19
13.85
13.59
12.67
11.21
9.15
6.56
3.59
0.67
-1.79
-3.4
-4.12
-4.11
-3.71
-3.29
-2.99
-2.97
-3.22
-3.83
-4.8
-6.17
-7.95
-10.09
-12.64
-15.57
-18.92
-22.62
-26.52
-30.3
-33.51
-35.66
-36.22
-34.9
-31.57
-26.58
-20.53
-14.27
-8.6
-3.95
-0.39
2.46
4.99
7.52
10.06
12.38
14.23
15.49
16.32
16.92
17.56
18.27
18.88
19.1
18.66
17.56
15.92
14.07
12.23
10.53
8.84
6.97
4.77
2.23
-0.45
-3.11
-5.6
-8.01
-10.56
-13.57
-17.18
-21.21
-25.25
-28.55
-30.5
-30.58
-28.73
-25.29
-20.8
-15.97
-11.24
-6.96
-3.07
0.49
3.87
7.06
9.9
12.23
13.92
15.09
15.91
16.74
17.74
18.94
20.22
21.34
22.21
22.79
23.2
23.49
23.58
23.19
22.01
19.89
16.94
13.63
10.37
7.62
5.37
3.38
1.28
-1.25
-4.32
-7.95
-11.93
-16.12
-20.2
-23.74
-26.24
-27.21
-26.43
-23.95
-20.26
-15.88
-11.41
-7.21
-3.49
-0.3
2.46
4.83
6.95
8.82
10.49
11.86
12.82
13.37
13.62
13.84
14.15
14.71
15.34
15.82
15.94
15.61
15.01
14.29
13.66
13.04
12.25
10.98
9.02
6.41
3.4
0.5
-1.9
-3.49
-4.39
-4.97
-5.76
-7.29
-9.72
-12.96
-16.53
-19.92
-22.5
-23.88
-23.84
-22.34
-19.57
-15.71
-11.13
-6.16
-1.22
3.31
7.13
10.05
12.08
13.32
14.06
14.51
14.97
15.58
16.33
17.13
17.76
18.1
18.06
17.79
17.45
17.22
17.13
17.01
16.63
15.71
14.24
12.3
10.23
8.25
6.51
5.03
3.65
2.27
0.68
-1.15
-3.36
-6.06
-9.31
-13.06
-16.95
-20.42
-22.75
-23.49
-22.49
-20.05
-16.76
-13.22
-9.86
-6.76
-3.88
-0.96
2
4.88
7.41
9.22
10.16
10.21
9.72
9.07
8.7
8.72
9.05
9.41
9.44
9.12
8.5
7.97
7.66
7.59
7.46
6.86
5.53
3.43
0.91
-1.65
-3.84
-5.61
-7.11
-8.68
-10.74
-13.5
-17.03
-21.04
-25.09
-28.44
-30.5
-30.8
-29.22
-26.11
-21.95
-17.32
-12.51
-7.79
-3.16
1.3
5.45
9.13
12.17
14.58
16.36
17.61
18.33
18.54
18.34
17.82
17.27
16.76
16.38
15.89
15.17
14.09
12.65
10.98
9.18
7.41
5.66
4.06
2.64
1.41
0.29
-0.97
-2.59
-4.73
-7.22
-9.82
-12.23
-14.41
-16.59
-19.07
-22.08
-25.38
-28.48
-30.54
-30.91
-29.25
-25.72
-20.89
-15.46
-10.07
-5.03
-0.53
3.53
7.13
10.23
12.74
14.59
15.98
17.08
18.2
19.41
20.6
21.49
21.76
21.34
20.33
19.2
18.35
18.15
18.62
19.51
20.42
20.84
20.52
19.35
17.54
15.33
13.04
10.74
8.36
5.79
2.9
-0.23
-3.57
-6.96
-10.42
-14.05
-17.9
-22
-26.04
-29.55
-31.88
-32.56
-31.36
-28.41
-24.21
-19.27
-14.17
-9.18
-4.54
-0.32
3.39
6.47
8.83
10.44
11.53
12.31
13.14
14.08
15.11
15.98
16.34
15.91
14.61
12.67
10.51
8.67
7.54
7.13
7.17
7.1
6.51
5.18
3.37
1.45
-0.2
-1.46
-2.5
-3.61
-5.11
-7.08
-9.61
-12.6
-15.96
-19.35
-22.25
-23.99
-23.94
-21.87
-17.9
-12.8
-7.52
-3.01
0.03
1.38
1.23
0.17
-1.12
-1.9
-1.75
-0.55
1.48
3.8
5.94
7.52
8.48
8.89
8.97
8.96
8.99
9.24
9.73
10.53
11.45
12.3
12.68
12.23
10.62
7.82
4.09
-0.06
-3.89
-6.81
-8.46
-8.93
-8.77
-8.72
-9.44
-11.12
-13.51
-15.89
-17.57
-18.08
-17.35
-15.71
-13.57
-11.23
-8.66
-5.75
-2.3
1.5
5.27
8.45
10.67
12.02
12.91
14.06
15.88
18.41
21.16
23.37
24.43
24.11
22.63
20.4
17.88
15.26
12.55
9.69
6.65
3.54
0.51
-2.2
-4.53
-6.44
-7.99
-9.28
-10.36
-11.35
-12.33
-13.5
-15.01
-16.99
-19.4
-22.02
-24.43
-26.08
-26.56
-25.56
-23.17
-19.71
-15.65
-11.41
-7.16
-3.01
1.13
5.15
8.93
12.17
14.69
16.38
17.29
17.57
17.33
16.75
15.94
15.09
14.36
13.83
13.38
12.69
11.5
9.55
6.97
4.03
1.14
-1.38
-3.41
-4.93
-6.1
-6.89
-7.39
-7.68
-8.02
-8.87
-10.56
-13.29
-16.77
-20.42
-23.42
-25.17
-25.37
-24.14
-21.92
-19.12
-16.04
-12.7
-9.1
-5.12
-0.9
3.23
6.84
9.54
11.26
12.12
12.61
13.16
14.07
15.33
16.62
17.61
17.99
17.85
17.37
16.83
16.28
15.57
14.4
12.56
10.09
7.16
4.06
0.91
-2.25
-5.47
-8.78
-12.04
-15.16
-18.01
-20.67
-23.13
-25.34
-27.02
-27.77
-27.24
-25.23
-21.82
-17.21
-11.81
-5.99
-0.15
5.35
10.2
14.14
17.16
19.38
21.08
22.44
23.62
24.6
25.25
25.53
25.41
25.02
24.43
23.69
22.83
21.78
20.49
18.83
16.78
14.19
11.12
7.62
3.91
0.26
-3.12
-6.07
-8.64
-10.93
-13.2
-15.74
-18.79
-22.5
-26.7
-30.98
-34.54
-36.63
-36.61
-34.44
-30.55
-25.72
-20.81
-16.34
-12.48
-9.03
-5.82
-2.68
0.25
2.74
4.6
5.78
6.51
7.1
7.98
9.27
10.95
12.71
14.14
14.96
15.04
14.55
13.7
12.73
11.67
10.42
8.86
6.9
4.7
2.47
0.58
-0.9
-1.96
-2.88
-4.08
-5.94
-8.68
-12.1
-15.69
-18.54
-19.76
-18.7
-15.2
-9.72
-3.12
3.49
9.17
13.16
15.21
15.4
14.22
12.48
11.08
10.88
12.29
15.27
19.11
22.83
25.48
26.42
25.54
23.21
20.17
17.06
14.46
12.53
11.2
10.2
9.2
8.02
6.52
4.69
2.5
-0.08
-3.16
-6.76
-10.77
-15.11
-19.62
-24.32
-29.17
-34.08
-38.63
-42.1
-43.71
-42.84
-39.38
-33.67
-26.54
-18.9
-11.6
-5.38
-0.66
2.26
3.51
3.43
2.69
1.95
1.59
1.56
1.41
0.67
-0.94
-3.07
-5.02
-5.88
-5.1
-2.71
0.71
4.14
6.65
7.59
6.9
4.85
1.9
-1.52
-5.3
-9.48
-14.26
-19.71
-25.83
-32.32
-38.71
-44.38
-48.58
-50.65
-50.02
-46.49
-40.23
-31.91
-22.5
-13.15
-5.01
1.17
5.04
6.89
7.4
7.51
8.06
9.4
11.45
13.69
15.5
16.4
16.34
15.54
14.44
13.45
12.81
12.65
12.87
13.36
13.79
13.87
13.29
11.82
9.45
6.32
2.8
-0.81
-4.15
-7.12
-9.75
-12.11
-14.3
-16.18
-17.52
-17.94
-17.18
-15.1
-11.84
-7.72
-3.14
1.51
6.01
10.11
13.69
16.5
18.33
19.06
18.7
17.51
15.86
14.18
12.66
11.4
10.22
8.88
7.23
5.2
3
0.87
-0.86
-2.05
-2.62
-2.66
-2.33
-1.82
-1.37
-1.14
-1.31
-1.94
-3.13
-4.93
-7.27
-10.01
-12.74
-15
-16.17
-15.86
-13.89
-10.51
-6.32
-2.01
1.78
4.73
6.74
8.02
8.71
8.89
8.48
7.39
5.8
4.1
3
3.02
4.4
6.68
8.93
10.14
9.6
7.34
3.94
0.4
-2.44
-4.15
-4.81
-4.86
-4.72
-4.84
-5.49
-7.02
-9.65
-13.51
-18.38
-23.47
-27.64
-29.61
-28.64
-24.71
-18.72
-11.93
-5.48
0
4.62
8.86
13.32
18.19
23.37
28.36
32.58
35.54
36.89
36.66
35.09
32.71
30.16
28.06
26.77
26.25
26.18
25.94
25.07
23.17
20.24
16.48
12.26
7.99
3.89
0.06
-3.63
-7.32
-11.23
-15.5
-20.25
-25.6
-31.51
-37.72
-43.56
-48.18
-50.61
-50.3
-47.31
-42.38
-36.72
-31.33
-26.88
-23.29
-20.14
-16.9
-13.34
-9.64
-6.14
-3.22
-0.9
0.97
2.82
5.01
7.69
10.75
13.84
16.59
18.59
19.68
19.68
18.56
16.24
12.75
8.33
3.38
-1.44
-5.65
-8.88
-11.27
-13.2
-15.21
-17.75
-20.96
-24.74
-28.74
-32.59
-35.77
-37.79
-38.19
-36.59
-32.99
-27.66
-21.24
-14.37
-7.69
-1.55
3.88
8.54
12.41
15.35
17.38
18.5
18.99
19.16
19.34
19.76
20.44
21.38
22.43
23.61
24.77
25.87
26.73
27.17
27.1
26.5
25.53
24.36
23.22
22.13
20.94
19.33
16.94
13.56
9.07
3.73
-2.16
-8.17
-13.94
-19.23
-23.74
-27.19
-29.16
-29.37
-27.58
-23.96
-19.03
-13.51
-8.14
-3.36
0.6
3.92
6.76
9.27
11.42
12.99
13.81
13.91
13.66
13.56
14.15
15.63
17.86
20.41
22.67
24.28
24.96
24.74
23.58
21.43
18.15
13.67
8.21
2.23
-3.41
-7.97
-10.87
-12.12
-12.23
-12.1
-12.71
-14.7
-18.35
-23.35
-29.17
-35.06
-40.29
-44.18
-46.02
-45.25
-41.44
-34.64
-25.35
-14.68
-3.98
5.43
12.57
17.09
19.13
19.39
18.65
17.78
17.36
17.63
18.55
19.79
21
21.88
22.42
22.79
23.29
24.09
25.12
26.13
26.7
26.53
25.37
23.26
20.35
16.86
13.13
9.52
6.46
4.2
2.85
2.08
1.32
-0.17
-3.02
-7.29
-12.52
-17.59
-21.32
-22.66
-21.25
-17.46
-12.17
-6.48
-1.08
3.65
7.84
11.57
14.85
17.4
18.88
19.23
18.7
18.03
17.91
18.83
20.71
23.01
24.98
25.99
25.86
24.78
23.31
21.9
20.88
20.19
19.55
18.61
17.06
14.86
12.14
9.34
6.82
4.94
3.78
3.06
2.32
0.94
-1.56
-5.51
-10.82
-17.2
-24.08
-30.64
-35.91
-38.84
-38.65
-34.97
-28.25
-19.52
-10.25
-1.87
4.73
9.22
12
13.66
14.81
15.77
16.58
17.15
17.31
17.11
16.53
15.64
14.37
12.63
10.44
7.96
5.59
3.7
2.6
2.13
1.92
1.39
0.08
-2.12
-5.02
-8.15
-11.15
-13.82
-16.4
-19.26
-22.81
-27.24
-32.2
-36.92
-40.29
-41.4
-39.64
-35.18
-28.81
-21.6
-14.64
-8.57
-3.64
0.33
3.56
6.21
8.24
9.57
10.26
10.48
10.58
10.79
11.21
11.7
11.98
11.87
11.32
10.52
9.66
8.97
8.33
7.49
6.06
3.73
0.45
-3.61
-7.94
-12.17
-15.97
-19.42
-22.83
-26.57
-30.9
-35.64
-40.29
-44.04
-46.15
-46.11
-43.78
-39.51
-33.81
-27.38
-20.71
-14.24
-8.08
-2.33
2.97
7.69
11.57
14.43
16.12
16.82
16.79
16.43
16.08
15.88
15.94
16.18
16.64
17.29
18.17
19.14
20.05
20.58
20.39
19.29
17.17
14.26
10.78
6.98
2.93
-1.58
-6.8
-13.07
-20.28
-28
-35.35
-41.35
-45.12
-46.25
-44.83
-41.29
-36.33
-30.51
-24.39
-18.28
-12.38
-6.81
-1.63
3.09
7.37
11.15
14.53
17.44
19.86
21.75
22.98
23.56
23.52
23.11
22.56
22.18
22.1
22.23
22.4
22.21
21.47
20.03
18.07
15.8
13.51
11.37
9.31
7.08
4.24
0.43
-4.57
-10.61
-17.18
-23.51
-28.67
-31.99
-33.06
-31.99
-29.12
-25.05
-20.37
-15.53
-10.79
-6.17
-1.7
2.71
6.98
11.06
14.7
17.68
19.84
21.1
21.58
21.5
21.19
20.88
20.84
21.12
21.65
22.29
22.79
22.95
22.57
21.61
20.05
18.01
15.72
13.32
10.93
8.44
5.61
2
-2.76
-8.9
-16.28
-24.31
-32.07
-38.37
-42.22
-42.92
-40.41
-35.12
-27.94
-19.88
-11.72
-4.02
3.12
9.68
15.7
21.05
25.53
28.95
31.31
32.9
33.98
34.85
35.48
35.66
35.13
33.7
31.5
28.82
26.09
23.49
21.16
18.94
16.64
14.16
11.42
8.53
5.53
2.58
-0.31
-3.08
-5.77
-8.55
-11.6
-15.14
-19.24
-23.81
-28.41
-32.52
-35.48
-36.8
-36.28
-33.9
-29.95
-24.75
-18.8
-12.57
-6.62
-1.45
2.58
5.34
7.07
8.1
8.94
9.97
11.4
13.24
15.28
17.27
18.83
19.86
20.23
20.02
19.34
18.25
16.77
14.89
12.71
10.27
7.78
5.29
2.83
0.33
-2.26
-4.88
-7.43
-9.76
-11.97
-14.32
-17.32
-21.35
-26.42
-32.03
-37.09
-40.4
-40.87
-38.09
-32.37
-24.61
-15.98
-7.47
0.2
6.83
12.37
17.01
20.82
23.86
26.13
27.59
28.41
28.69
28.72
28.65
28.67
28.81
29.02
29.27
29.52
29.86
30.3
30.88
31.42
31.61
31.07
29.49
26.87
23.46
19.82
16.36
13.28
10.3
6.82
2.23
-3.83
-11.14
-19.13
-26.9
-33.65
-38.73
-41.76
-42.64
-41.35
-38.12
-33.24
-27.22
-20.56
-13.73
-7.07
-0.75
5.06
10.28
14.64
17.97
20.08
21.08
21.31
21.26
21.39
21.9
22.72
23.49
23.83
23.51
22.51
21.03
19.23
17.24
15.03
12.61
9.92
7.09
4.24
1.52
-0.95
-3.23
-5.38
-7.62
-10.16
-13.32
-17.41
-22.69
-29.25
-36.76
-44.64
-51.91
-57.6
-60.9
-61.44
-59.34
-55.07
-49.29
-42.46
-34.89
-26.65
-17.85
-8.77
0.11
8.13
14.83
19.88
23.37
25.52
26.66
27.04
26.84
26.26
25.5
24.91
24.66
24.94
25.64
26.54
27.27
27.43
26.66
24.73
21.71
17.76
13.4
9.08
5.17
1.81
-1.22
-4.23
-7.68
-11.82
-16.89
-22.81
-29.23
-35.54
-40.76
-43.87
-44.04
-41.06
-35.38
-28.1
-20.44
-13.42
-7.53
-2.66
1.48
5.24
8.74
11.87
14.5
16.63
18.43
20.16
22.1
24.24
26.4
28.24
29.33
29.48
28.7
27.4
26.06
25.3
25.34
26.01
26.75
26.77
25.43
22.49
18.34
13.64
9.23
5.67
3.18
1.61
0.43
-1.03
-3.66
-8.05
-14.47
-22.43
-30.83
-38.1
-42.77
-43.91
-41.3
-35.54
-27.51
-18.25
-8.62
0.69
8.96
15.6
19.98
21.82
21.07
18.14
13.66
8.43
3.28
-1.1
-4.11
-5.47
-5.12
-3.41
-0.93
1.62
3.62
4.72
4.81
4.01
2.36
-0.1
-3.42
-7.57
-12.21
-16.87
-20.93
-24.02
-26.1
-27.59
-29.11
-31.21
-34.05
-37.26
-40.11
-41.7
-41.37
-38.81
-34.19
-28
-20.78
-13.04
-5.07
2.86
10.58
17.69
23.8
28.52
31.68
33.42
34.13
34.39
34.61
35.08
35.77
36.44
36.77
36.47
35.45
33.68
31.45
29.02
26.72
24.69
22.83
20.92
18.63
15.84
12.53
8.97
5.32
1.69
-2.07
-6.21
-10.72
-15.28
-19.05
-21.11
-20.71
-17.72
-12.68
-6.56
-0.45
4.93
9.18
12.4
14.76
16.42
17.4
17.65
17.17
16.06
14.63
13.15
11.93
11.09
10.57
10.21
9.75
9.05
7.97
6.53
4.67
2.41
-0.27
-3.31
-6.48
-9.48
-11.99
-13.93
-15.44
-17.07
-19.42
-22.9
-27.5
-32.64
-37.4
-40.76
-42.05
-41.04
-38.07
-33.73
-28.61
-23.15
-17.52
-11.9
-6.5
-1.75
1.85
3.96
4.6
4.24
3.65
3.64
4.59
6.43
8.56
10.19
10.67
9.71
7.5
4.49
1.25
-1.79
-4.42
-6.64
-8.67
-10.78
-13.35
-16.67
-21.02
-26.37
-32.41
-38.46
-43.55
-46.75
-47.25
-44.9
-40.04
-33.56
-26.49
-19.81
-14.12
-9.55
-5.94
-2.87
-0.1
2.6
5.18
7.5
9.48
11.07
12.41
13.58
14.76
15.92
16.94
17.56
17.51
16.63
14.87
12.49
9.74
6.92
4.13
1.29
-1.83
-5.53
-9.97
-15.19
-20.94
-26.88
-32.4
-36.79
-39.31
-39.29
-36.45
-30.95
-23.55
-15.26
-7.25
-0.34
5.03
8.87
11.55
13.52
15.25
16.99
18.84
20.62
22.03
22.67
22.25
20.79
18.49
15.9
13.48
11.57
10.25
9.38
8.78
8.26
7.81
7.31
6.58
5.2
2.59
-1.74
-8.04
-16.09
-25.24
-34.38
-42.35
-47.99
-50.54
-49.78
-45.97
-39.95
-32.73
-25.39
-18.61
-12.69
-7.48
-2.63
2.14
6.93
11.54
15.69
19.1
21.66
23.46
24.63
25.37
25.75
25.78
25.35
24.4
22.88
20.83
18.42
15.88
13.47
11.32
9.49
7.8
5.99
3.71
0.61
-3.54
-8.87
-15.18
-22.12
-28.97
-34.91
-39.05
-40.7
-39.55
-35.63
-29.46
-21.68
-13.16
-4.63
3.33
10.31
16.17
20.83
24.44
27.12
29.11
30.51
31.43
31.93
32
31.77
31.28
30.7
30.01
29.3
28.45
27.35
25.91
24.03
21.78
19.17
16.34
13.35
10.25
6.98
3.36
-0.82
-5.88
-11.88
-18.68
-25.72
-32.26
-37.38
-40.3
-40.54
-37.97
-32.9
-25.88
-17.67
-8.98
-0.41
7.59
14.81
21.11
26.46
30.73
33.85
35.71
36.42
36.2
35.36
34.34
33.4
32.75
32.38
32.22
32.08
31.71
30.85
29.28
26.95
23.9
20.39
16.63
12.87
9.21
5.64
2.13
-1.41
-5.08
-9.05
-13.49
-18.54
-24.19
-30.06
-35.54
-39.71
-41.8
-41.25
-38.02
-32.48
-25.28
-17.16
-8.74
-0.58
6.97
13.57
19.01
23.16
26.07
27.94
29.11
30.01
31.01
32.46
34.36
36.5
38.37
39.2
38.42
35.63
31.07
25.27
19.15
13.43
8.52
4.36
0.46
-3.76
-8.79
-14.68
-21.22
-27.91
-34.34
-40.31
-45.72
-50.55
-54.51
-57.18
-57.96
-56.51
-52.9
-47.65
-41.57
-35.29
-29.2
-23.19
-17.04
-10.53
-3.8
2.73
8.5
13.07
16.47
19.1
21.71
24.86
28.84
33.32
37.59
40.83
42.38
42.15
40.37
37.58
34.24
30.57
26.56
22.09
17.21
12.07
7.05
2.41
-1.8
-5.77
-9.87
-14.47
-19.78
-25.8
-32.48
-39.58
-46.88
-53.91
-59.95
-64.16
-65.65
-63.89
-58.82
-51.02
-41.36
-30.86
-20.38
-10.4
-1.17
7.26
14.8
21.31
26.5
30.15
32.19
32.88
32.8
32.61
32.91
33.85
35.24
36.53
37.22
37.11
36.31
35.29
34.35
33.56
32.52
30.66
27.49
22.87
17.13
10.91
4.92
-0.39
-4.82
-8.51
-11.73
-14.8
-18.05
-21.68
-25.91
-30.67
-35.76
-40.69
-44.78
-47.35
-47.81
-45.92
-41.72
-35.66
-28.32
-20.35
-12.25
-4.29
3.37
10.74
17.73
24.3
30.2
35.28
39.34
42.29
44.17
45.03
45.13
44.67
44
43.35
42.83
42.47
42.04
41.38
40.2
38.37
35.77
32.46
28.54
24.15
19.54
14.92
10.55
6.57
3.11
0.22
-2.15
-4.07
-5.73
-7.35
-9.28
-11.83
-15.46
-20.39
-26.66
-33.91
-41.36
-47.96
-52.55
-54.37
-53.04
-48.87
-42.53
-34.92
-26.85
-18.84
-11.25
-4.22
2.11
7.61
12.14
15.65
18.27
20.21
21.83
23.37
24.97
26.51
27.81
28.67
28.99
28.88
28.47
28.01
27.53
27.1
26.68
26.26
25.92
25.64
25.33
24.71
23.57
21.67
19.03
15.82
12.26
8.52
4.57
0.3
-4.52
-9.93
-16
-22.62
-29.66
-36.91
-44
-50.41
-55.38
-58.24
-58.44
-55.92
-51.12
-44.81
-37.91
-31.16
-24.97
-19.29
-13.88
-8.39
-2.69
3.06
8.5
13.17
16.89
19.73
22.1
24.43
26.99
29.75
32.36
34.46
35.85
36.7
37.26
37.85
38.58
39.22
39.44
38.82
37.18
34.47
30.89
26.68
22.08
17.32
12.53
7.86
3.36
-0.84
-4.78
-8.57
-12.53
-17.11
-22.68
-29.44
-37.07
-44.99
-52.13
-57.5
-60.3
-60.16
-57.2
-51.92
-45.07
-37.3
-29.27
-21.4
-14.07
-7.54
-2.01
2.41
5.87
8.57
10.96
13.37
16.08
19.18
22.62
26.26
29.89
33.27
36.09
38.09
38.97
38.54
36.84
34.04
30.56
26.75
22.99
19.39
16
12.75
9.56
6.51
3.67
1.2
-0.89
-2.68
-4.47
-6.57
-9.28
-12.84
-17.31
-22.6
-28.3
-33.77
-38.19
-40.7
-40.74
-38.12
-33.16
-26.5
-18.94
-11.26
-4.07
2.12
7.02
10.5
12.68
13.87
14.58
15.23
16.11
17.3
18.65
20.02
21.23
22.27
23.07
23.66
24
24.03
23.82
23.43
23.01
22.54
21.98
21.07
19.61
17.39
14.35
10.68
6.64
2.62
-1.13
-4.4
-7.29
-10.05
-13.05
-16.75
-21.38
-26.99
-33.17
-39.31
-44.56
-48.18
-49.69
-48.97
-46.26
-41.94
-36.57
-30.59
-24.56
-18.91
-14.13
-10.55
-8.2
-6.9
-6.13
-5.36
-4.12
-2.28
0.06
2.57
4.91
6.96
8.68
10.23
11.68
13
13.99
14.39
14.07
13.07
11.79
10.58
9.77
9.31
8.83
7.73
5.41
1.51
-4.09
-11.08
-18.96
-26.92
-34.02
-39.33
-42.11
-42.05
-39.31
-34.55
-28.5
-21.94
-15.38
-9.11
-3.41
1.53
5.44
8.2
9.84
10.61
10.77
10.58
10.13
9.39
8.38
7.15
5.95
4.91
4.15
3.56
2.86
1.75
-0.01
-2.38
-5.21
-8.19
-11.11
-13.86
-16.46
-19.03
-21.66
-24.53
-27.7
-31.34
-35.6
-40.52
-45.97
-51.46
-56.26
-59.39
-60.1
-57.94
-53.13
-46.36
-38.5
-30.33
-22.2
-14.19
-6.17
1.69
9
15.1
19.47
21.95
22.82
22.71
22.23
21.85
21.66
21.55
21.39
21.11
20.83
20.66
20.79
21.21
21.78
22.17
21.9
20.6
18.02
14.2
9.43
4.25
-0.94
-5.85
-10.55
-15.31
-20.4
-25.95
-31.65
-36.94
-41.02
-43.23
-43.14
-40.74
-36.4
-30.62
-24.04
-17.08
-10.08
-3.28
3.11
8.85
13.74
17.68
20.85
23.44
25.71
27.72
29.29
30.18
30.18
29.43
28.28
27.29
26.81
27
27.62
28.24
28.43
27.87
26.47
24.18
21.13
17.41
13.12
8.39
3.26
-2.11
-7.69
-13.35
-19.04
-24.67
-30.1
-35.12
-39.35
-42.38
-43.67
-42.89
-39.92
-35.04
-28.76
-21.74
-14.56
-7.58
-1.01
5.08
10.52
15.15
18.77
21.3
22.88
23.79
24.5
25.29
26.36
27.62
28.86
29.89
30.48
30.59
30.13
29.18
27.67
25.64
23.03
19.81
16.06
11.87
7.57
3.47
-0.1
-3.05
-5.52
-7.83
-10.44
-13.59
-17.38
-21.61
-26
-30.19
-33.84
-36.58
-37.97
-37.64
-35.25
-30.86
-24.74
-17.56
-9.98
-2.61
4.11
9.96
14.72
18.4
20.99
22.7
23.81
24.66
25.54
26.62
27.99
29.55
31.25
32.87
34.22
35.07
35.16
34.4
32.77
30.55
27.98
25.44
23.1
21.01
19.05
16.93
14.4
11.22
7.36
2.81
-2.27
-7.76
-13.64
-19.85
-26.38
-32.98
-39.28
-44.59
-48.23
-49.63
-48.51
-45.06
-39.69
-33.1
-25.83
-18.37
-11.01
-4.04
2.23
7.5
11.45
14.06
15.5
16.28
16.92
17.87
19.32
21.17
23.16
24.96
26.44
27.51
28.32
29.02
29.65
30.11
30.06
29.22
27.27
24.26
20.47
16.39
12.53
9.07
6.04
3.14
0.12
-3.29
-7.13
-11.43
-16.19
-21.32
-26.64
-31.66
-35.81
-38.35
-38.85
-37.15
-33.51
-28.43
-22.43
-15.97
-9.36
-2.92
3.09
8.27
12.28
14.94
16.35
16.96
17.39
18.29
20.04
22.65
25.69
28.48
30.45
31.3
31.24
30.72
30.3
30.15
30.03
29.28
27.17
23.36
17.94
11.66
5.39
-0.06
-4.33
-7.49
-9.95
-12.21
-14.64
-17.59
-21.19
-25.56
-30.64
-36.02
-40.95
-44.4
-45.45
-43.55
-38.95
-32.5
-25.43
-18.81
-13.22
-8.67
-4.74
-1.07
2.54
5.83
8.43
10.05
10.63
10.56
10.28
10.22
10.47
10.92
11.22
11.21
10.98
10.78
10.91
11.46
12.26
12.85
12.76
11.68
9.57
6.72
3.56
0.69
-1.51
-2.84
-3.51
-4.07
-5.21
-7.59
-11.41
-16.49
-22.08
-27.3
-31.21
-33.2
-33.03
-30.76
-26.83
-21.63
-15.73
-9.55
-3.53
1.93
6.59
10.2
12.74
14.29
15.15
15.63
16.02
16.58
17.27
18.07
18.8
19.5
20.15
20.83
21.48
21.91
21.78
20.67
18.38
14.87
10.5
5.76
1.22
-2.74
-6.05
-8.83
-11.52
-14.45
-17.91
-21.85
-25.99
-29.85
-32.83
-34.44
-34.26
-32.24
-28.5
-23.51
-17.8
-11.93
-6.39
-1.52
2.42
5.38
7.32
8.44
8.95
9.14
9.22
9.27
9.42
9.76
10.58
11.98
14.02
16.31
18.21
19.06
18.33
15.99
12.35
8.03
3.56
-0.62
-4.3
-7.55
-10.48
-13.46
-16.83
-21.08
-26.4
-32.72
-39.53
-45.99
-51.17
-54.21
-54.63
-52.36
-47.77
-41.51
-34.38
-27.18
-20.46
-14.63
-9.72
-5.73
-2.48
0.23
2.49
4.43
6.01
7.27
8.17
8.8
9.27
9.7
10.18
10.57
10.69
10.22
9.05
7.13
4.7
1.98
-0.84
-3.71
-6.72
-9.91
-13.35
-16.93
-20.63
-24.43
-28.34
-32.34
-36.15
-39.32
-41.13
-41.06
-38.78
-34.57
-29.11
-23.22
-17.63
-12.61
-8.15
-3.9
0.3
4.42
8.11
10.95
12.77
13.69
14.37
15.52
17.8
21.36
25.81
30.33
33.91
35.8
35.63
33.6
30.16
25.95
21.45
16.99
12.77
8.81
5.11
1.42
-2.57
-7.32
-13.1
-19.82
-27
-33.65
-38.71
-41.24
-40.8
-37.4
-31.62
-24.4
-16.72
-9.49
-3.18
2.04
6.38
10.06
13.25
15.99
18.08
19.45
20.12
20.41
20.58
20.86
21.25
21.57
21.6
21.19
20.39
19.27
17.98
16.54
14.92
13.05
10.82
8.2
5.11
1.61
-2.34
-6.64
-11.29
-16.3
-21.61
-27.09
-32.27
-36.43
-38.66
-38.27
-34.97
-29.11
-21.53
-13.26
-5.22
2.15
8.67
14.37
19.21
23.03
25.61
26.87
27.06
26.63
26.2
26.2
26.78
27.74
28.66
29.2
29.13
28.55
27.56
26.37
24.97
23.27
21.16
18.55
15.6
12.5
9.59
7
4.72
2.36
-0.63
-4.77
-10.34
-17.15
-24.6
-31.71
-37.53
-41.23
-42.39
-41.05
-37.6
-32.76
-27.21
-21.61
-16.32
-11.43
-6.87
-2.49
1.69
5.63
9.13
12.09
14.46
16.3
17.73
18.83
19.74
20.49
21.26
22.07
22.93
23.62
23.79
23.07
21.15
18.09
14.07
9.58
5
0.66
-3.43
-7.49
-11.84
-16.76
-22.17
-27.67
-32.43
-35.61
-36.55
-35.04
-31.4
-26.15
-19.92
-13.06
-5.86
1.52
8.71
15.24
20.67
24.68
27.38
29.05
30.2
31.11
31.99
32.79
33.38
33.75
33.82
33.68
33.29
32.58
31.37
29.45
26.72
23.16
19.02
14.54
10.04
5.7
1.56
-2.45
-6.42
-10.39
-14.51
-18.85
-23.69
-29.24
-35.49
-42.02
-47.91
-52.07
-53.44
-51.58
-46.6
-39.35
-30.91
-22.33
-14.37
-7.35
-1.39
3.6
7.65
10.88
13.43
15.53
17.44
19.36
21.43
23.5
25.42
26.94
27.96
28.47
28.56
28.42
28.06
27.53
26.65
25.3
23.3
20.59
17.25
13.39
9.27
4.95
0.58
-3.91
-8.59
-13.55
-18.93
-24.72
-30.87
-36.96
-42.5
-46.69
-48.83
-48.5
-45.72
-41.05
-35.16
-28.78
-22.24
-15.59
-8.66
-1.33
6.22
13.59
20.23
25.7
29.68
32.24
33.54
33.9
33.63
33
32.38
32
32.13
32.8
33.85
34.93
35.51
35.2
33.74
31.25
27.92
24.09
19.94
15.51
10.79
5.8
0.76
-4.04
-8.28
-11.92
-15.18
-18.6
-22.76
-27.92
-33.89
-39.84
-44.69
-47.34
-47.2
-44.28
-39.13
-32.65
-25.54
-18.29
-10.93
-3.47
4.15
11.73
18.91
25.3
30.57
34.61
37.45
39.36
40.6
41.44
42.05
42.36
42.21
41.33
39.58
37.02
33.95
30.71
27.56
24.57
21.64
18.72
15.81
13.17
10.97
9.25
7.78
6.08
3.74
0.4
-4.04
-9.6
-16.15
-23.46
-31.13
-38.46
-44.55
-48.36
-49.22
-46.83
-41.6
-34.36
-26.17
-18.04
-10.54
-3.87
2.11
7.58
12.65
17.16
20.82
23.41
24.88
25.51
25.74
26.09
26.7
27.5
28.17
28.34
27.91
26.97
25.87
24.85
24
23.06
21.62
19.31
15.97
11.9
7.56
3.57
0.18
-2.67
-5.48
-8.93
-13.57
-19.62
-26.74
-34.25
-41.17
-46.63
-49.92
-50.73
-49.1
-45.3
-39.88
-33.33
-26.22
-19.03
-12.17
-6.02
-0.77
3.53
7.02
9.9
12.51
15.05
17.59
20.09
22.36
24.26
25.65
26.55
26.94
26.95
26.67
26.16
25.47
24.52
23.26
21.56
19.33
16.38
12.66
8.22
3.21
-1.93
-6.89
-11.33
-15.31
-19.15
-23.37
-28.4
-34.29
-40.61
-46.39
-50.57
-52.13
-50.63
-46.12
-39.22
-30.89
-22.01
-13.33
-5.08
2.69
10.17
17.33
23.95
29.65
34.07
37.16
39.08
40.18
40.63
40.38
39.25
37.11
34.21
31.06
28.42
26.7
25.95
25.68
25.2
23.93
21.59
18.33
14.48
10.43
6.36
2.36
-1.69
-5.93
-10.41
-15.19
-20.15
-25.25
-30.34
-35.39
-40.23
-44.58
-48.04
-49.98
-49.9
-47.42
-42.75
-36.47
-29.54
-22.88
-17.12
-12.41
-8.44
-4.85
-1.32
2.02
4.84
6.73
7.43
7.07
6.08
5.14
4.79
5.43
7.11
9.54
12.3
14.8
16.61
17.34
16.93
15.4
12.97
9.94
6.54
3.08
-0.36
-3.75
-7.31
-11.32
-16.06
-21.6
-27.58
-33.37
-37.94
-40.48
-40.39
-37.77
-33.11
-27.22
-20.93
-14.71
-8.79
-3.09
2.43
7.78
12.8
17.3
21.12
24.22
26.65
28.45
29.71
30.36
30.44
29.95
28.91
27.51
25.89
24.25
22.62
20.97
19.14
16.98
14.5
11.78
9.09
6.56
4.24
1.84
-1.02
-4.83
-9.97
-16.57
-24.53
-33.37
-42.28
-50.11
-55.74
-58.25
-57.31
-53.24
-46.85
-39.2
-31.06
-22.96
-14.98
-7.13
0.55
7.9
14.62
20.5
25.32
29.04
31.67
33.28
33.97
33.84
33.03
31.66
29.91
27.91
25.88
24
22.33
20.82
19.31
17.63
15.64
13.41
11.11
8.94
6.95
5.02
2.88
0.16
-3.44
-8.19
-14.12
-21.13
-28.77
-36.26
-42.6
-46.71
-47.86
-45.88
-41.24
-34.8
-27.5
-20.1
-12.91
-6.02
0.62
6.9
12.64
17.52
21.34
24.05
25.73
26.63
26.97
27.03
26.97
26.94
26.98
27.09
27.24
27.35
27.45
27.46
27.3
26.75
25.55
23.46
20.39
16.49
12.05
7.46
2.96
-1.36
-5.58
-9.87
-14.37
-19.22
-24.43
-30.01
-35.8
-41.55
-46.84
-51.07
-53.62
-53.95
-51.86
-47.5
-41.48
-34.63
-27.77
-21.49
-15.96
-11.12
-6.67
-2.45
1.64
5.55
9.17
12.5
15.59
18.54
21.35
23.99
26.25
27.98
29.04
29.43
29.29
28.8
28.23
27.65
27.04
26.18
24.76
22.6
19.68
16.29
12.78
9.51
6.53
3.66
0.46
-3.45
-8.2
-13.63
-19.24
-24.42
-28.46
-30.83
-31.22
-29.55
-26.02
-20.99
-15
-8.52
-2.01
4.18
9.79
14.57
18.36
21.09
22.96
24.26
25.44
26.77
28.28
29.78
30.84
31.17
30.61
29.28
27.35
25.12
22.71
20.15
17.46
14.58
11.61
8.59
5.72
3.06
0.61
-1.67
-3.95
-6.36
-9.09
-12.21
-15.86
-19.99
-24.4
-28.66
-32.13
-34.16
-34.19
-32.03
-27.78
-22.02
-15.47
-8.93
-3.1
1.64
5.15
7.63
9.35
10.64
11.67
12.44
12.91
12.98
12.75
12.31
11.91
11.61
11.44
11.3
11.03
10.53
9.72
8.73
7.61
6.47
5.27
3.85
1.95
-0.72
-4.18
-8.34
-12.84
-17.4
-21.91
-26.4
-30.95
-35.29
-38.89
-40.87
-40.53
-37.56
-32.32
-25.7
-18.72
-12.24
-6.6
-1.91
1.99
5.2
7.73
9.55
10.7
11.39
11.84
12.37
13.07
13.93
14.72
15.18
15.18
14.69
13.99
13.35
12.99
12.83
12.48
11.51
9.55
6.61
2.97
-0.85
-4.51
-7.81
-10.91
-14.13
-17.71
-21.88
-26.56
-31.58
-36.53
-40.96
-44.31
-46.12
-46.2
-44.51
-41.4
-37.2
-32.33
-27
-21.41
-15.71
-10.1
-4.91
-0.37
3.26
6.04
8.2
10.13
12.19
14.56
17.17
19.69
21.87
23.45
24.5
25.14
25.48
25.57
25.26
24.48
23.14
21.42
19.42
17.28
14.99
12.39
9.37
5.84
1.94
-2.2
-6.39
-10.69
-15.19
-19.99
-25.02
-29.78
-33.6
-35.68
-35.48
-32.9
-28.35
-22.56
-16.27
-10.15
-4.4
0.87
5.76
10.26
14.22
17.48
19.84
21.33
22.12
22.68
23.39
24.57
26.24
28.09
29.69
30.67
30.96
30.73
30.38
30.15
30.03
29.8
29.05
27.54
25.18
22.23
19
15.8
12.71
9.62
6.38
2.72
-1.44
-6.21
-11.51
-17.27
-23.23
-29
-34.08
-37.83
-39.77
-39.56
-37.27
-33.22
-27.97
-22.22
-16.55
-11.45
-7.06
-3.49
-0.61
1.64
3.3
4.42
5.06
5.41
5.7
6.19
7.01
8.14
9.4
10.51
11.31
11.65
11.56
11.03
10.08
8.6
6.47
3.71
0.36
-3.3
-7.02
-10.51
-13.7
-16.67
-19.7
-23.17
-27.3
-32.02
-36.82
-40.95
-43.46
-43.76
-41.67
-37.54
-32.15
-26.2
-20.26
-14.51
-8.99
-3.72
1.11
5.15
8.23
10.27
11.62
12.68
13.92
15.48
17.26
18.93
20.17
20.88
21.13
21.24
21.4
21.73
22.04
21.98
21.22
19.47
16.78
13.28
9.35
5.2
1
-3.25
-7.66
-12.29
-17.28
-22.6
-28.27
-34.05
-39.61
-44.41
-47.77
-49.07
-47.87
-44.15
-38.22
-30.79
-22.63
-14.43
-6.75
0.12
5.99
10.84
14.61
17.45
19.48
20.86
21.8
22.42
22.84
23.11
23.3
23.4
23.39
23.19
22.71
21.92
20.77
19.36
17.72
15.91
13.89
11.64
9.2
6.63
4.14
1.79
-0.36
-2.55
-5.1
-8.42
-12.81
-18.28
-24.53
-30.81
-36.27
-40.04
-41.53
-40.58
-37.38
-32.49
-26.48
-19.94
-13.15
-6.36
0.31
6.58
12.1
16.55
19.68
21.57
22.5
22.96
23.34
23.85
24.53
25.2
25.74
26.04
26.15
26.08
25.86
25.44
24.66
23.47
21.76
19.65
17.19
14.55
11.77
8.91
5.99
2.91
-0.31
-3.8
-7.58
-11.79
-16.51
-21.76
-27.44
-33.08
-38.02
-41.36
-42.44
-40.87
-36.84
-30.97
-24.1
-17.06
-10.36
-4.34
0.96
5.38
8.84
11.21
12.56
13.15
13.38
13.72
14.44
15.63
17.11
18.57
19.79
20.65
21.24
21.73
22.35
23.07
23.78
24.17
23.82
22.53
20.25
17.26
13.91
10.72
7.95
5.66
3.62
1.33
-1.77
-6.08
-11.62
-18.07
-24.65
-30.45
-34.65
-36.68
-36.42
-33.99
-29.81
-24.34
-18.15
-11.75
-5.64
-0.25
4.22
7.69
10.35
12.36
13.98
15.29
16.32
17.1
17.65
18.13
18.62
19.26
20.02
20.84
21.59
22.14
22.42
22.34
21.93
21.15
20.08
18.74
17.18
15.47
13.66
11.84
10.02
8.25
6.4
4.33
1.82
-1.32
-5.06
-9.21
-13.29
-16.75
-19.02
-19.82
-19.12
-17.17
-14.36
-10.98
-7.27
-3.26
0.95
5.19
9.06
12.11
13.99
14.57
14.13
13.07
11.99
11.25
11
11.16
11.51
11.92
12.29
12.71
13.14
13.55
13.75
13.45
12.53
10.96
8.95
6.77
4.7
2.82
1.05
-0.83
-3.07
-5.72
-8.7
-11.77
-14.76
-17.59
-20.35
-23.11
-25.79
-28.11
-29.46
-29.37
-27.47
-23.92
-19.19
-13.99
-8.97
-4.5
-0.72
2.5
5.21
7.44
9.11
10.07
10.3
9.91
9.28
8.76
8.76
9.37
10.48
11.7
12.51
12.47
11.25
8.91
5.69
2.11
-1.35
-4.38
-6.89
-9.07
-11.08
-13.18
-15.37
-17.67
-20.06
-22.54
-25.16
-27.73
-29.88
-30.99
-30.53
-28.23
-24.3
-19.38
-14.23
-9.57
-5.7
-2.67
-0.28
1.57
2.86
3.43
3.13
1.99
0.22
-1.71
-3.4
-4.49
-4.92
-4.9
-4.79
-5.02
-5.79
-7.12
-8.72
-10.33
-11.63
-12.51
-13.09
-13.56
-14.18
-15.12
-16.64
-18.9
-22.13
-26.38
-31.4
-36.66
-41.24
-44.27
-44.98
-43.16
-38.98
-33.11
-26.38
-19.54
-13.18
-7.51
-2.6
1.71
5.47
8.74
11.43
13.42
14.72
15.36
15.6
15.57
15.4
15.04
14.41
13.41
12.01
10.37
8.63
6.99
5.44
3.92
2.31
0.46
-1.63
-3.98
-6.5
-9.26
-12.31
-15.86
-20.04
-24.82
-29.95
-34.85
-38.81
-41.02
-41.01
-38.62
-34.18
-28.38
-21.98
-15.68
-9.84
-4.62
0.03
4.09
7.47
10.04
11.72
12.63
13
13.23
13.59
14.29
15.35
16.63
17.96
19.09
19.88
20.1
19.75
18.76
17.14
14.93
12.16
9.01
5.62
2.22
-1.14
-4.57
-8.42
-13.14
-18.87
-25.4
-31.91
-37.33
-40.62
-41.24
-39.2
-35.02
-29.47
-23.1
-16.36
-9.36
-2.31
4.57
10.91
16.33
20.65
23.86
26.22
27.93
29.27
30.28
30.9
31.01
30.53
29.55
28.28
27.04
25.98
25.13
24.29
23.17
21.54
19.29
16.55
13.47
10.23
6.87
3.39
-0.3
-4.31
-8.7
-13.55
-18.78
-24.19
-29.27
-33.36
-35.71
-35.84
-33.63
-29.32
-23.48
-16.64
-9.35
-1.97
5.17
11.7
17.32
21.75
24.99
27.18
28.67
29.75
30.62
31.38
31.99
32.47
32.78
32.99
33.02
32.86
32.46
31.76
30.76
29.38
27.55
25.11
22.12
18.66
15.1
11.81
9.04
6.89
5.08
3.33
1.25
-1.44
-4.94
-9.36
-14.63
-20.51
-26.38
-31.49
-34.92
-36.07
-34.68
-30.95
-25.47
-18.92
-12.01
-5.27
0.78
5.79
9.39
11.4
11.85
10.98
9.34
7.5
6.1
5.56
6.17
7.9
10.42
13.28
15.9
17.87
18.83
18.74
17.65
15.61
12.69
8.85
4.21
-1.15
-6.9
-12.79
-18.64
-24.46
-30.51
-37.21
-45.01
-54.13
-64.67
-76.29
-88.53
-100.81
-112.5
-123.15
-132.32
-139.78
-145.35
-149.15
-151.5
-152.96
-154.41
-156.61
-160.16
-165.04
-170.84
-176.68
-181.52
-184.31
-184
-179.62
-170.05
-154.32
-131.59
-101.68
-65.17
-23.49
21.18
66.37
109.56
148.72
182.26
209.24
229.14
241.86
247.66
247.1
241.25
231.38
218.96
205.21
191.05
176.93
162.88
148.82
134.61
120.35
106.18
92.38
79.13
66.71
55.42
45.67
37.94
32.53
29.6
28.85
29.67
31.31
33
34.19
34.59
34.27
33.41
32.38
31.51
31.09
31.22
31.87
32.9
34.04
35.13
35.88
36.17
35.84
34.89
33.4
31.51
29.5
27.51
25.71
24.02
22.35
20.52
18.42
16.06
13.44
10.64
7.66
4.5
1.11
-2.51
-6.4
-10.65
-15.27
-20.21
-25.11
-29.45
-32.51
-33.76
-33.03
-30.5
-26.73
-22.18
-17.26
-12.11
-6.88
-1.87
2.47
5.57
7.18
7.33
6.63
5.78
5.46
5.92
7.01
8.28
9.19
9.45
9
8.08
6.9
5.6
4.09
2.13
-0.38
-3.44
-6.71
-9.82
-12.32
-14.07
-15.19
-16
-16.99
-18.51
-20.85
-23.98
-27.71
-31.59
-35.02
-37.38
-38.07
-36.78
-33.41
-28.27
-21.76
-14.52
-7.2
-0.35
5.51
10.17
13.51
15.76
17.17
18.07
18.72
19.2
19.59
19.84
20.07
20.35
20.82
21.5
22.31
23.12
23.69
23.83
23.3
21.99
19.83
16.87
13.3
9.41
5.54
1.92
-1.28
-4.13
-6.8
-9.62
-12.89
-16.72
-20.99
-25.16
-28.46
-29.95
-29.06
-25.67
-20.39
-14.3
-8.58
-4.16
-1.35
-0.03
0.34
0.29
0.2
0.28
0.48
0.8
1.13
1.53
2
2.62
3.36
4.13
4.8
5.22
5.39
5.37
5.4
5.65
6.12
6.58
6.61
5.83
4.03
1.49
-1.4
-4.08
-6.38
-8.52
-11.04
-14.57
-19.32
-25.06
-30.96
-36
-39.24
-40.13
-38.66
-35.17
-30.25
-24.36
-17.92
-11.15
-4.32
2.2
8.02
12.69
16.09
18.28
19.75
20.98
22.4
24.14
25.97
27.54
28.47
28.7
28.28
27.48
26.49
25.39
24.13
22.59
20.79
18.73
16.59
14.4
12.16
9.7
6.77
3.22
-1.11
-6.12
-11.69
-17.58
-23.55
-29.27
-34.31
-38.16
-40.25
-40.17
-37.69
-33.11
-26.96
-20.09
-13.33
-7.32
-2.36
1.58
4.64
7.08
8.95
10.31
11.11
11.39
11.28
10.99
10.8
10.76
10.88
10.99
10.89
10.48
9.7
8.69
7.54
6.42
5.36
4.33
3.23
1.87
0.12
-2.19
-5.09
-8.66
-12.85
-17.55
-22.55
-27.44
-31.69
-34.6
-35.67
-34.6
-31.56
-27.01
-21.65
-16.15
-10.99
-6.42
-2.42
1.01
3.93
6.23
7.81
8.58
8.58
8.05
7.31
6.77
6.63
6.88
7.24
7.29
6.78
5.59
3.98
2.2
0.54
-1.05
-2.74
-4.83
-7.55
-10.93
-14.94
-19.43
-24.36
-29.56
-34.78
-39.53
-43.14
-45.01
-44.63
-41.96
-37.25
-31.09
-24.18
-17.17
-10.57
-4.63
0.52
4.93
8.62
11.62
13.89
15.32
15.91
15.72
15.04
14.16
13.44
13.03
12.95
13.01
12.89
12.36
11.22
9.53
7.34
4.84
2.1
-0.91
-4.24
-8.02
-12.28
-17.02
-22.21
-27.86
-33.94
-40.32
-46.65
-52.22
-56.21
-57.8
-56.59
-52.65
-46.53
-39.07
-31.08
-23.21
-15.72
-8.74
-2.17
3.92
9.51
14.45
18.6
21.95
24.55
26.66
28.44
30.05
31.49
32.67
33.47
33.78
33.64
33.08
32.19
30.92
29.16
26.72
23.42
19.3
14.54
9.57
4.74
0.34
-3.75
-7.88
-12.52
-18.11
-24.61
-31.58
-38.01
-42.88
-45.31
-44.94
-42
-37.13
-31.1
-24.49
-17.67
-10.69
-3.67
3.21
9.6
15.11
19.54
22.97
25.84
28.54
31.42
34.46
37.36
39.76
41.38
42.33
42.8
43.12
43.33
43.36
42.95
41.84
39.94
37.29
34.09
30.48
26.62
22.57
18.4
14.12
9.72
5.23
0.51
-4.55
-10.16
-16.45
-23.44
-30.94
-38.38
-45.02
-49.91
-52.4
-52.16
-49.39
-44.59
-38.42
-31.41
-23.81
-15.76
-7.34
1.13
9.16
16.22
21.87
25.98
28.74
30.59
31.93
33.15
34.35
35.47
36.35
36.79
36.78
36.4
35.87
35.34
34.89
34.39
33.54
31.99
29.52
26.21
22.37
18.5
14.91
11.64
8.43
4.81
0.45
-4.82
-10.86
-17.43
-24.16
-30.63
-36.3
-40.58
-42.91
-42.84
-40.37
-35.76
-29.57
-22.44
-14.91
-7.44
-0.38
5.92
11.28
15.5
18.59
20.62
21.81
22.43
22.75
23.06
23.46
24.01
24.58
25.05
25.31
25.33
25.16
24.79
24.18
23.13
21.45
18.97
15.66
11.7
7.31
2.84
-1.58
-5.9
-10.38
-15.3
-20.95
-27.37
-34.22
-40.78
-46.1
-49.36
-49.97
-47.83
-43.28
-36.88
-29.36
-21.29
-13.23
-5.52
1.48
7.53
12.41
15.98
18.23
19.26
19.38
18.9
18.27
17.76
17.52
17.53
17.61
17.62
17.5
17.4
17.42
17.68
17.96
17.9
17.06
15.12
12.18
8.53
4.71
1.02
-2.44
-5.93
-9.89
-14.66
-20.42
-27.01
-34.09
-41.12
-47.5
-52.57
-55.77
-56.72
-55.19
-51.4
-45.71
-38.78
-31.19
-23.46
-15.94
-8.79
-2.11
4.12
9.83
15.04
19.7
23.74
27.2
30.05
32.42
34.33
35.91
37.12
37.96
38.36
38.28
37.76
36.85
35.68
34.25
32.61
30.61
28.12
25.01
21.25
16.99
12.47
8.04
3.92
0.2
-3.3
-6.94
-11.11
-16.13
-21.99
-28.46
-34.96
-40.85
-45.45
-48.21
-48.78
-47.01
-42.96
-36.86
-29.17
-20.36
-11.02
-1.74
7
14.74
21.29
26.54
30.62
33.73
36.13
38.04
39.56
40.8
41.77
42.56
43.24
43.9
44.55
45.08
45.35
45.17
44.5
43.33
41.78
39.98
38.02
35.94
33.64
31.1
28.26
25.2
21.94
18.55
15.04
11.31
7.31
2.95
-1.82
-7.12
-12.97
-19.5
-26.72
-34.44
-42.21
-49.24
-54.65
-57.58
-57.66
-54.94
-50.07
-43.87
-37.16
-30.47
-24.01
-17.83
-11.87
-6.24
-1.04
3.58
7.53
10.86
13.59
15.86
17.66
19.08
20.13
20.82
21.19
21.27
21.13
20.78
20.36
19.85
19.22
18.35
17.09
15.48
13.62
11.84
10.35
9.31
8.53
7.66
6.27
4.08
1.16
-2.2
-5.47
-8.29
-10.54
-12.48
-14.6
-17.37
-21.15
-25.95
-31.55
-37.36
-42.63
-46.5
-48.27
-47.56
-44.35
-39.07
-32.36
-24.89
-17.2
-9.67
-2.64
3.61
8.78
12.73
15.41
17.09
18.07
18.69
19.16
19.58
19.98
20.34
20.78
21.34
22.11
23.05
23.98
24.7
24.95
24.71
23.99
23.01
21.89
20.73
19.38
17.58
15.16
12.05
8.46
4.67
0.99
-2.47
-5.76
-9.08
-12.62
-16.4
-20.4
-24.45
-28.6
-32.97
-37.77
-43.06
-48.55
-53.59
-57.19
-58.53
-57.09
-53.01
-46.9
-39.58
-31.86
-24.22
-16.86
-9.77
-3
3.32
8.91
13.46
16.86
19.21
20.96
22.57
24.51
26.84
29.4
31.81
33.72
35.09
36.09
37.08
38.28
39.7
41.04
41.88
41.89
40.93
39.19
36.97
34.67
32.44
30.29
28.02
25.32
22.08
18.26
14.11
9.89
5.84
2
-1.75
-5.56
-9.66
-14.13
-19.06
-24.36
-29.99
-35.66
-40.93
-45.22
-47.84
-48.36
-46.55
-42.66
-37.17
-30.75
-24.02
-17.44
-11.35
-5.85
-1.02
3.19
6.77
9.73
12.07
13.75
14.9
15.58
16.04
16.44
16.98
17.65
18.39
19.13
19.75
20.23
20.53
20.74
20.78
20.61
20.16
19.31
18.06
16.35
14.26
11.79
9.05
6.05
2.84
-0.56
-4.1
-7.68
-11.22
-14.5
-17.54
-20.41
-23.44
-27.06
-31.48
-36.54
-41.58
-45.67
-47.79
-47.44
-44.69
-40.1
-34.59
-28.92
-23.61
-18.74
-14.2
-9.8
-5.46
-1.34
2.37
5.37
7.56
8.93
9.71
10.13
10.46
10.84
11.36
12.11
13.1
14.45
16.13
18.05
19.91
21.28
21.76
21.02
19.1
16.21
12.85
9.42
6.16
3.11
0.06
-3.1
-6.46
-9.84
-13.14
-16.23
-19.22
-22.35
-25.92
-30.18
-35.09
-40.4
-45.5
-49.75
-52.48
-53.27
-52.02
-48.87
-44.29
-38.71
-32.69
-26.56
-20.65
-15.2
-10.36
-6.25
-2.8
0.11
2.74
5.27
7.82
10.33
12.62
14.53
15.91
16.89
17.57
18.22
18.97
19.86
20.76
21.43
21.67
21.28
20.28
18.73
16.85
14.77
12.56
10.18
7.57
4.73
1.71
-1.28
-4.12
-6.8
-9.44
-12.31
-15.62
-19.57
-24.12
-29.12
-34.17
-38.73
-42.25
-44.23
-44.38
-42.6
-39.1
-34.14
-28.18
-21.64
-14.96
-8.54
-2.65
2.56
7.18
11.27
14.96
18.23
21
23.2
24.85
26.14
27.28
28.47
29.72
30.99
32.12
32.9
33.24
33.1
32.52
31.54
30.27
28.76
27.02
25.03
22.73
20.13
17.22
14.2
11.19
8.39
5.8
3.28
0.63
-2.46
-6.14
-10.52
-15.54
-21
-26.57
-31.75
-35.98
-38.65
-39.35
-37.92
-34.64
-30.03
-24.76
-19.44
-14.45
-9.99
-6
-2.45
0.73
3.44
5.59
7.1
8
8.52
8.94
9.67
10.85
12.5
14.29
15.82
16.77
16.99
16.66
15.98
15.21
14.35
13.22
11.59
9.32
6.52
3.43
0.43
-2.34
-4.87
-7.37
-10.13
-13.41
-17.32
-21.76
-26.53
-31.2
-35.33
-38.38
-39.94
-39.79
-37.93
-34.66
-30.33
-25.44
-20.36
-15.46
-11
-7.14
-3.95
-1.39
0.6
2.16
3.36
4.3
5.06
5.68
6.27
6.88
7.54
8.19
8.77
9.22
9.51
9.69
9.76
9.75
9.54
8.99
7.88
6.07
3.53
0.38
-3.07
-6.55
-9.73
-12.56
-15.14
-17.8
-20.97
-24.98
-29.96
-35.66
-41.53
-46.71
-50.41
-51.95
-51.04
-47.85
-42.87
-36.81
-30.27
-23.74
-17.44
-11.5
-6.04
-1.25
2.65
5.53
7.49
8.88
10.09
11.48
13.07
14.67
16.02
16.93
17.52
18.05
18.9
20.18
21.76
23.25
24.19
24.32
23.65
22.4
20.83
19.08
17.13
14.82
11.96
8.42
4.25
-0.5
-5.65
-11.12
-16.89
-22.96
-29.26
-35.52
-41.25
-45.67
-48.14
-48.12
-45.63
-41.07
-35.15
-28.6
-21.89
-15.34
-8.99
-3.02
2.4
7.01
10.66
13.44
15.6
17.56
19.61
21.9
24.32
26.67
28.72
30.34
31.59
32.61
33.6
34.61
35.63
36.38
36.5
35.72
33.85
31.11
27.77
24.27
20.83
17.51
14.18
10.66
6.87
2.73
-1.76
-6.71
-12.21
-18.25
-24.57
-30.54
-35.37
-38.23
-38.65
-36.53
-32.28
-26.61
-20.36
-14.25
-8.75
-4.08
-0.14
3.24
6.38
9.44
12.52
15.6
18.56
21.44
24.23
27.06
29.93
32.78
35.43
37.68
39.42
40.57
41.22
41.4
41.19
40.51
39.24
37.26
34.46
30.96
26.91
22.69
18.62
14.96
11.75
8.82
5.91
2.73
-0.79
-4.81
-9.31
-14.36
-19.96
-25.87
-31.62
-36.37
-39.32
-39.84
-37.85
-33.75
-28.32
-22.41
-16.57
-11.14
-6.12
-1.49
2.75
6.41
9.25
11.12
12.01
12.28
12.38
12.91
14.15
16.1
18.41
20.5
21.94
22.47
22.27
21.61
20.87
20.13
19.26
18.02
16.15
13.72
10.92
8.2
5.84
4.1
2.86
1.83
0.65
-1.1
-3.66
-7.23
-11.78
-17.19
-23.13
-29.14
-34.63
-38.92
-41.52
-42.05
-40.54
-37.27
-32.73
-27.47
-21.96
-16.55
-11.42
-6.85
-2.96
0.1
2.32
3.82
4.84
5.71
6.65
7.88
9.34
10.98
12.64
14.17
15.46
16.38
16.93
17.08
16.95
16.56
15.96
15.02
13.58
11.52
8.8
5.62
2.21
-1.11
-4.21
-7.15
-10.19
-13.73
-18.05
-23.29
-29.19
-35.33
-40.95
-45.36
-47.97
-48.48
-46.99
-43.79
-39.37
-34.07
-28.24
-22.1
-15.86
-9.81
-4.13
0.96
5.46
9.35
12.74
15.63
17.95
19.68
20.82
21.63
22.34
23.27
24.47
25.84
27.09
27.91
28.13
27.7
26.83
25.63
24.27
22.75
20.96
18.74
15.94
12.54
8.52
4.08
-0.64
-5.41
-10.1
-14.64
-18.98
-23.18
-27.15
-30.87
-34.04
-36.39
-37.59
-37.35
-35.61
-32.4
-27.99
-22.62
-16.72
-10.61
-4.66
0.76
5.41
9.08
11.75
13.55
14.77
15.71
16.71
18
19.7
21.82
24.16
26.54
28.56
29.93
30.38
29.77
28.2
25.86
23.15
20.4
17.94
15.87
14.14
12.6
11.04
9.34
7.4
5.26
2.88
0.23
-2.82
-6.47
-10.91
-16.26
-22.31
-28.58
-34.21
-38.38
-40.43
-40.23
-38.14
-34.72
-30.55
-25.85
-20.62
-14.7
-8.13
-1.26
5.43
11.46
16.61
20.85
24.44
27.54
30.25
32.57
34.41
35.76
36.57
36.93
36.9
36.65
36.31
36
35.79
35.63
35.43
34.99
34.2
32.84
30.82
28.07
24.57
20.48
15.95
11.32
6.75
2.31
-2.16
-7.02
-12.58
-18.98
-25.94
-32.85
-38.73
-42.74
-44.29
-43.27
-40.04
-35.2
-29.5
-23.44
-17.43
-11.61
-6.12
-1.07
3.38
7.01
9.75
11.56
12.69
13.43
14.14
15
15.96
16.88
17.5
17.81
17.89
18.02
18.33
18.81
19.18
19.02
18.08
16.26
13.76
10.86
7.87
4.97
2.2
-0.41
-2.98
-5.48
-8.09
-10.84
-13.9
-17.35
-21.15
-25.12
-28.82
-31.74
-33.28
-33.12
-31.18
-27.77
-23.49
-18.91
-14.48
-10.33
-6.47
-2.82
0.53
3.33
5.34
6.41
6.73
6.63
6.61
6.92
7.67
8.7
9.69
10.46
10.86
10.98
10.89
10.72
10.41
9.87
8.94
7.45
5.38
2.71
-0.37
-3.73
-7.15
-10.54
-13.85
-17.15
-20.67
-24.59
-29.09
-34.07
-39.22
-43.91
-47.48
-49.42
-49.43
-47.58
-44.13
-39.51
-34.09
-28.17
-21.97
-15.74
-9.75
-4.22
0.66
4.92
8.6
11.87
14.83
17.48
19.78
21.65
23.12
24.2
25.05
25.7
26.18
26.47
26.48
26.23
25.69
24.98
24.04
22.83
21.2
18.99
16.19
12.91
9.45
6.04
2.86
-0.22
-3.5
-7.4
-12.28
-18.11
-24.5
-30.62
-35.57
-38.58
-39.31
-37.86
-34.7
-30.41
-25.42
-20.07
-14.4
-8.56
-2.64
3.14
8.55
13.47
17.8
21.62
25.04
28.19
31.07
33.56
35.41
36.35
36.33
35.44
34.07
32.57
31.28
30.26
29.34
28.25
26.71
24.64
22.09
19.26
16.34
13.44
10.59
7.72
4.79
1.74
-1.44
-4.91
-8.81
-13.4
-18.78
-24.8
-30.96
-36.44
-40.45
-42.36
-42.05
-39.88
-36.5
-32.61
-28.64
-24.78
-20.97
-17.19
-13.51
-10.1
-7.18
-4.77
-2.72
-0.74
1.38
3.66
5.82
7.48
8.36
8.49
8.27
8.24
8.9
10.38
12.48
14.61
16.1
16.42
15.27
12.67
8.86
4.22
-0.89
-6.12
-11.24
-16.14
-20.79
-25.29
-29.75
-34.32
-38.98
-43.58
-47.69
-50.65
-51.75
-50.35
-46.26
-39.74
-31.58
-22.73
-14.11
-6.29
0.55
6.48
11.7
16.23
20.06
23.07
25.26
26.84
28.15
29.6
31.31
33.28
35.19
36.68
37.51
37.57
37.04
36.11
35.02
33.76
32.29
30.41
27.94
24.81
21.09
17.03
12.84
8.78
4.87
1.03
-2.92
-7.22
-11.98
-17.3
-23.13
-29.41
-35.87
-42.11
-47.59
-51.71
-54.01
-54.19
-52.35
-48.69
-43.62
-37.46
-30.55
-23.27
-16.02
-9.23
-3.16
2.01
6.38
10.12
13.44
16.54
19.55
22.58
25.67
28.85
31.96
34.83
37.19
38.81
39.61
39.53
38.67
37.06
34.82
32
28.76
25.24
21.62
18.08
14.74
11.72
9
6.48
3.93
1.06
-2.41
-6.68
-11.71
-17.3
-23.04
-28.42
-32.92
-36.05
-37.4
-36.72
-34
-29.34
-23.2
-16.08
-8.57
-1.15
5.88
12.36
18.31
23.72
28.63
32.95
36.64
39.71
42.21
44.38
46.46
48.79
51.62
55.08
59.01
63.07
66.84
69.99
72.49
74.55
76.62
79.03
81.93
85.09
88.02
90.21
91.25
91.19
90.44
89.84
90.19
91.82
94.28
96.11
95.27
89.42
76.59
55.38
25.54
-11.8
-53.99
-96.96
-136.01
-166.73
-186.37
-194.45
-192.8
-184.62
-173.11
-160.36
-146.97
-132.52
-116.39
-98.63
-80.01
-61.77
-44.97
-30.04
-16.84
-4.9
5.89
15.2
22.26
26.41
27.47
25.97
22.9
19.27
15.8
12.5
9.01
4.75
-0.6
-6.87
-13.47
-19.52
-24.4
-27.82
-30.16
-32.1
-34.4
-37.47
-41.27
-45.35
-49.04
-51.85
-53.42
-53.66
-52.6
-50.24
-46.6
-41.65
-35.53
-28.47
-20.93
-13.44
-6.58
-0.79
3.76
7.15
9.74
11.89
13.9
15.81
17.48
18.66
19.16
19.07
18.53
17.89
17.33
16.97
16.76
16.62
16.44
16.09
15.46
14.36
12.69
10.39
7.55
4.36
1.02
-2.3
-5.59
-8.9
-12.48
-16.53
-21.22
-26.57
-32.3
-37.9
-42.59
-45.72
-46.78
-45.76
-43.01
-39.02
-34.23
-28.8
-22.82
-16.28
-9.44
-2.73
3.3
8.18
11.75
14.08
15.48
16.21
16.55
16.61
16.52
16.38
16.33
16.55
17.14
18.2
19.62
21.27
22.88
24.22
25.15
25.58
25.59
25.08
23.97
22.03
19.08
15.07
10.14
4.68
-1.04
-6.75
-12.5
-18.34
-24.17
-29.62
-34.01
-36.55
-36.65
-34.24
-29.69
-23.79
-17.37
-11.03
-5.06
0.55
5.83
10.81
15.21
18.78
21.29
22.76
23.49
23.92
24.52
25.49
26.8
28.12
29.18
29.88
30.42
31.25
32.75
35.16
38.3
41.71
44.78
47
48.15
48.33
47.98
47.55
47.51
48.03
49
50.06
50.76
50.83
50.3
49.63
49.42
50.29
52.59
56.37
61.5
67.76
75.11
83.63
93.53
105
118.18
133.17
149.82
167.65
185.43
201.25
212.71
217.55
214.4
203.02
184.29
159.58
130.16
96.68
59.29
18
-26.57
-72.65
-117.23
-156.48
-186.93
-206.48
-215.44
-216.39
-213.44
-210.72
-210.92
-214.69
-220.83
-227.38
-232.48
-235.08
-234.8
-231.63
-225.57
-216.39
-203.95
-188.27
-169.8
-149.41
-128.22
-107.33
-87.49
-68.95
-51.47
-34.65
-18.24
-2.53
11.72
23.53
32.21
37.74
40.76
42.4
43.66
45.22
47.21
49.33
51.17
52.44
53.17
53.47
53.6
53.65
53.65
53.46
52.93
51.97
50.52
48.66
46.44
43.98
41.34
38.53
35.49
32.08
28.26
24
19.4
14.51
9.32
3.73
-2.33
-8.77
-15.22
-21.06
-25.64
-28.42
-29.19
-28.14
-25.67
-22.28
-18.33
-14.13
-9.86
-5.75
-2.04
1.01
3.26
4.74
5.61
6.2
6.7
7.23
7.7
7.99
8.07
8.01
8.08
8.42
9.1
9.87
10.38
10.25
9.3
7.65
5.57
3.46
1.47
-0.44
-2.5
-5
-8.11
-11.9
-16.18
-20.71
-25.03
-28.7
-31.15
-31.94
-30.85
-27.9
-23.51
-18.18
-12.55
-7.08
-2.07
2.27
5.86
8.57
10.49
11.71
12.54
13.19
13.83
14.44
14.84
14.92
14.64
14.22
13.89
13.87
14.12
14.39
14.3
13.45
11.67
8.84
5.17
0.91
-3.57
-7.96
-12.08
-15.87
-19.67
-23.86
-29.05
-35.5
-43.13
-51.32
-58.96
-64.83
-67.97
-68.12
-65.74
-61.98
-58.1
-55.02
-52.94
-51.32
-49.34
-46.37
-42.63
-39.12
-37.35
-38.54
-42.98
-49.87
-57.52
-64.32
-69.33
-72.83
-75.96
-80.28
-87.31
-98.28
-114.39
-136.43
-164.35
-196.26
-228.06
-253.88
-267.89
-266.31
-248.8
-218.52
-180.19
-137.86
-93.26
-46.26
2.94
51.63
93.76
121.88
130.62
120.04
96.18
68.79
47.02
35.67
34.02
37.64
42.05
45.51
49.66
57.96
73.04
95.26
123.02
154.47
188.97
226.98
268.41
310.67
347.99
372.87
379.45
366.51
338.8
305.38
276.15
257.98
252.35
255.81
262.06
264.85
259.81
245.06
220.47
186.82
145.18
96.95
44.06
-11.17
-66.22
-118.98
-168.1
-212.89
-253.03
-287.96
-316.99
-339.26
-354.15
-361.18
-359.84
-349.22
-328.03
-295.46
-252.54
-203.38
-154.72
-114.12
-86.72
-72.76
-67.18
-61.6
-48.18
-22.89
12.91
53.9
93.67
127.73
154.75
175.89
192.91
206.26
214.61
215.7
208.04
192.09
170.4
146.47
122.86
100.05
76.42
49.62
18.52
-15.49
-48.45
-75.36
-92.05
-96.79
-90.36
-75.05
-53.15
-25.97
6.09
42.7
82.55
123.04
160.58
191.81
214.72
229.23
237.16
241.32
244.5
248.42
253.52
259.11
264.03
267.41
268.9
268.75
267.55
265.97
264.66
264.13
264.53
265.39
265.56
263.3
256.94
245.44
228.85
208.15
184.74
159.85
134.12
107.88
81.25
54.66
28.61
3.53
-20.57
-44.28
-68.58
-94.65
-123.3
-154.69
-187.74
-220.14
-248.71
-270.17
-282.19
-284.13
-277.26
-264.05
-247.4
-229.59
-211.99
-195.25
-179.69
-165.65
-153.36
-142.87
-133.7
-125.07
-116.2
-106.7
-96.88
-87.43
-79.26
-72.95
-68.64
-66.01
-64.49
-63.57
-62.96
-62.69
-62.81
-63.46
-64.6
-66.08
-67.69
-69.17
-70.37
-71.15
-71.53
-71.59
-71.64
-72
-73.06
-75.05
-77.9
-81.19
-84.12
-85.83
-85.59
-83.12
-78.58
-72.61
-66.04
-59.62
-53.9
-49.05
-45.16
-42.18
-40.2
-39.34
-39.63
-40.91
-42.66
-44.28
-45.2
-45.3
-44.87
-44.54
-45
-46.53
-48.97
-51.58
-53.57
-54.22
-53.36
-51.35
-48.92
-46.94
-45.9
-45.68
-45.33
-43.31
-37.87
-27.76
-12.93
5.25
24.04
40.06
50.18
52.6
47.34
36.37
23.06
11.2
4.08
3.58
9.94
21.69
36.23
50.48
61.67
68.1
69.43
66.85
62.37
58.32
56.42
57.29
60.4
64.28
67.23
67.67
64.8
58.43
49.17
38.08
26.4
15.43
6.16
-0.7
-5.01
-6.99
-7.3
-6.84
-6.51
-7.18
-9.39
-13.36
-18.99
-26.01
-34.05
-42.73
-51.71
-60.55
-68.82
-76.02
-81.95
-86.66
-90.67
-94.77
-99.69
-105.79
-112.64
-119.14
-123.45
-123.74
-118.55
-107.38
-90.82
-70.33
-47.94
-25.52
-4.69
13.52
28.41
39.58
46.92
50.73
51.92
51.85
52.3
54.83
60.56
69.91
82.69
98.23
115.49
133.26
150
164.14
174.11
178.59
176.69
167.96
152.43
130.46
102.96
71.25
37.34
3.65
-27.29
-53.21
-72.63
-84.79
-89.91
-88.74
-82.62
-73.23
-62.37
-51.87
-43.05
-36.72
-32.72
-30.21
-27.82
-24.22
-18.61
-11.06
-2.75
4.51
8.69
8.45
3.51
-5.22
-15.97
-26.79
-36.01
-42.69
-46.37
-47.22
-45.54
-41.82
-36.73
-30.94
-25.14
-19.68
-14.72
-10.08
-5.57
-1.17
2.95
6.37
8.7
9.66
9.41
8.27
6.76
5.23
3.79
2.34
0.67
-1.21
-3.18
-4.93
-6.29
-7.29
-8.16
-9.13
-10.15
-10.97
-11.1
-10.32
-8.74
-6.83
-5.22
-4.29
-4.08
-4.24
-4.48
-4.55
-4.57
-4.74
-5.22
-5.87
-6.3
-6.14
-5.08
-3.22
-0.85
1.62
3.79
5.44
6.43
6.7
6.14
4.69
2.26
-1.1
-5.14
-9.46
-13.5
-16.78
-18.98
-20.22
-20.9
-21.7
-23.33
-26.23
-30.41
-35.41
-40.46
-44.67
-47.34
-48.02
-46.6
-43.26
-38.25
-31.93
-24.56
-16.44
-7.86
0.77
9.06
16.63
23.2
28.68
33.05
36.38
38.71
40.02
40.27
39.47
37.81
35.66
33.6
32.14
31.67
32.34
33.96
36.25
38.74
41.09
42.85
43.7
43.39
41.78
38.98
35.19
30.75
25.87
20.7
15.17
9.25
2.99
-3.41
-9.54
-15
-19.37
-22.4
-23.95
-24.13
-23.13
-21.24
-18.75
-15.83
-12.62
-9.18
-5.68
-2.4
0.36
2.28
3.43
3.98
4.44
5.14
6.22
7.49
8.52
8.91
8.48
7.39
5.96
4.72
3.91
3.58
3.52
3.37
2.85
1.89
0.72
-0.34
-0.89
-0.85
-0.4
-0.02
-0.31
-1.65
-4.23
-7.8
-12.05
-16.48
-20.66
-24.22
-26.74
-27.93
-27.45
-25.36
-21.88
-17.55
-13.02
-8.87
-5.42
-2.68
-0.52
1.35
3.09
4.75
6.27
7.52
8.45
9.07
9.5
9.81
10.08
10.23
10.08
9.47
8.23
6.42
4.1
1.57
-0.93
-3.19
-5.05
-6.52
-7.63
-8.54
-9.39
-10.45
-12.02
-14.4
-17.74
-21.92
-26.52
-30.72
-33.76
-34.93
-33.98
-31.06
-26.65
-21.38
-15.75
-10.11
-4.52
0.92
6.09
10.71
14.39
16.87
18.06
18.29
18
17.8
18.05
18.85
19.98
20.98
21.5
21.3
20.54
19.48
18.51
17.79
17.23
16.59
15.45
13.72
11.43
8.99
6.75
4.92
3.35
1.63
-0.67
-3.82
-7.73
-12.18
-16.77
-21.21
-25.33
-28.9
-31.69
-33.25
-33.28
-31.53
-28.12
-23.38
-17.8
-11.9
-6.08
-0.68
4.16
8.22
11.46
13.86
15.56
16.81
17.83
18.92
20.19
21.71
23.31
24.81
26.02
26.79
27.1
26.99
26.67
26.2
25.63
24.94
23.95
22.55
20.62
18.22
15.4
12.35
9.17
5.91
2.5
-1.16
-5.18
-9.6
-14.31
-19.16
-23.83
-27.93
-31.06
-32.78
-32.84
-31.15
-27.97
-23.65
-18.65
-13.33
-7.92
-2.63
2.43
7.03
11.04
14.36
17.13
19.61
22.08
24.74
27.55
30.41
33.05
35.33
37.06
38.12
38.4
37.85
36.64
35.01
33.41
32.06
31.06
30.15
28.9
26.94
24.13
20.69
16.94
13.27
9.8
6.41
2.83
-1.26
-5.98
-11.33
-17.02
-22.75
-27.99
-32.27
-35.16
-36.33
-35.72
-33.39
-29.7
-24.96
-19.58
-13.92
-8.3
-3.08
1.44
4.98
7.45
8.86
9.42
9.46
9.34
9.44
9.98
11.17
12.86
14.87
16.78
18.18
18.74
18.31
17.08
15.37
13.72
12.44
11.68
11.26
10.78
9.78
7.84
4.88
0.97
-3.42
-7.82
-11.7
-14.78
-17.05
-18.74
-20.31
-22.17
-24.66
-27.78
-31.29
-34.71
-37.42
-38.85
-38.42
-35.85
-31.02
-24.18
-15.84
-6.74
2.25
10.34
16.86
21.52
24.22
25.2
24.82
23.54
21.88
20.35
19.45
19.49
20.64
22.73
25.39
28.1
30.37
31.92
32.6
32.48
31.47
29.45
26.17
21.49
15.59
8.95
2.32
-3.6
-8.35
-11.98
-14.78
-17.14
-19.3
-21.16
-22.44
-22.78
-22.12
-20.62
-18.75
-16.91
-15.31
-13.9
-12.31
-10.2
-7.24
-3.49
0.82
5.3
9.52
13.3
16.57
19.48
22.12
24.55
26.56
27.84
28.06
27.04
24.94
22.11
19.13
16.4
14.11
12.14
10.2
8.09
5.79
3.62
1.88
0.92
0.69
0.8
0.65
-0.41
-2.69
-6.27
-10.74
-15.62
-20.23
-24.03
-26.55
-27.42
-26.48
-23.75
-19.56
-14.41
-9.01
-3.98
0.21
3.34
5.55
7.06
8.24
9.29
10.32
11.28
11.99
12.35
12.25
11.86
11.32
10.88
10.61
10.48
10.35
10.03
9.5
8.76
7.94
7.04
5.99
4.6
2.58
-0.21
-3.81
-7.99
-12.54
-17.15
-21.67
-25.95
-29.77
-32.79
-34.56
-34.72
-33.02
-29.69
-25.16
-20.08
-15.08
-10.51
-6.55
-3.09
0
2.82
5.32
7.34
8.68
9.21
9.03
8.44
7.96
7.99
8.87
10.48
12.44
14.17
15.15
15.16
14.23
12.71
10.87
8.91
6.8
4.41
1.69
-1.4
-4.7
-8.27
-12.19
-16.61
-21.53
-26.53
-30.93
-33.78
-34.44
-32.68
-28.9
-23.88
-18.49
-13.4
-8.87
-4.93
-1.33
2
5.14
7.94
10.23
11.87
12.79
13.18
13.19
13.15
13.26
13.63
14.26
15.01
15.79
16.41
16.81
16.81
16.31
15.09
12.94
9.82
5.75
1.09
-3.75
-8.38
-12.68
-16.83
-21.21
-26.14
-31.55
-36.96
-41.47
-44.24
-44.74
-42.98
-39.4
-34.66
-29.33
-23.68
-17.82
-11.65
-5.25
1.23
7.46
13.05
17.75
21.37
24.01
25.77
26.94
27.72
28.24
28.59
28.81
28.98
29.13
29.41
29.85
30.36
30.7
30.46
29.34
27.11
23.92
20.02
15.87
11.73
7.61
3.31
-1.54
-7.1
-13.38
-20
-26.49
-32.27
-36.87
-39.98
-41.35
-40.91
-38.65
-34.77
-29.53
-23.42
-16.94
-10.57
-4.73
0.41
4.75
8.42
11.62
14.57
17.47
20.42
23.48
26.52
29.41
31.93
34.02
35.61
36.72
37.39
37.57
37.26
36.31
34.69
32.3
29.16
25.38
21.09
16.62
12.27
8.39
5.09
2.33
-0.21
-3.04
-6.61
-11.23
-16.8
-22.88
-28.68
-33.33
-36.02
-36.26
-34.05
-29.73
-23.95
-17.43
-10.82
-4.54
1.07
5.82
9.61
12.38
14.26
15.41
16.18
16.85
17.66
18.64
19.68
20.59
21.19
21.49
21.54
21.52
21.45
21.29
20.88
20.09
18.94
17.53
16.1
14.72
13.4
12.02
10.34
8.24
5.66
2.69
-0.61
-4.08
-7.65
-11.28
-14.9
-18.45
-21.7
-24.36
-25.98
-26.27
-25.01
-22.35
-18.72
-14.58
-10.43
-6.5
-3
0.02
2.35
3.72
3.95
3.02
1.3
-0.68
-2.17
-2.73
-2.17
-0.68
1.3
3.34
5.12
6.62
7.85
8.92
9.75
10.13
9.83
8.66
6.72
4.23
1.59
-0.95
-3.33
-5.68
-8.26
-11.31
-14.94
-19.03
-23.31
-27.27
-30.52
-32.66
-33.51
-33.07
-31.44
-28.85
-25.48
-21.57
-17.32
-12.97
-8.81
-5.07
-1.92
0.63
2.67
4.47
6.2
8.02
9.91
11.72
13.31
14.48
15.24
15.63
15.82
15.81
15.55
14.85
13.52
11.53
8.93
6.05
3.14
0.39
-2.13
-4.6
-7.21
-10.19
-13.63
-17.61
-21.98
-26.65
-31.42
-36.03
-40.1
-43.13
-44.65
-44.18
-41.64
-37.22
-31.53
-25.29
-19.15
-13.52
-8.47
-3.92
0.24
3.93
6.97
9.22
10.65
11.6
12.43
13.6
15.2
17.07
18.81
20.06
20.67
20.75
20.64
20.61
20.81
21.08
21.03
20.29
18.62
16.07
12.87
9.46
6.07
2.84
-0.35
-3.73
-7.5
-11.81
-16.47
-21.17
-25.33
-28.44
-30.02
-29.82
-27.91
-24.55
-20.22
-15.29
-10.1
-4.85
0.31
5.21
9.72
13.67
17.04
19.9
22.47
24.93
27.39
29.78
31.88
33.45
34.29
34.39
33.9
33.09
32.19
31.29
30.38
29.29
27.94
26.22
24.15
21.73
18.93
15.74
12.18
8.42
4.61
0.97
-2.56
-6.22
-10.42
-15.5
-21.45
-27.82
-33.78
-38.44
-41
-41.15
-39.02
-35.06
-29.89
-24.01
-17.83
-11.53
-5.34
0.51
5.69
9.86
12.84
14.63
15.51
15.83
15.98
16.16
16.43
16.74
16.97
17.15
17.24
17.32
17.34
17.24
16.84
15.97
14.54
12.51
10.15
7.74
5.67
4.13
3.03
2.01
0.61
-1.51
-4.48
-8.07
-12.01
-15.99
-19.82
-23.4
-26.57
-29.1
-30.62
-30.84
-29.63
-27.19
-23.89
-20.15
-16.35
-12.64
-9.1
-5.7
-2.53
0.32
2.72
4.58
5.99
7.1
8.21
9.44
10.89
12.4
13.78
14.81
15.31
15.27
14.72
13.78
12.48
10.87
8.92
6.6
3.97
1.16
-1.62
-4.27
-6.68
-9.03
-11.61
-14.74
-18.7
-23.5
-28.87
-34.18
-38.74
-41.87
-43.18
-42.61
-40.35
-36.86
-32.52
-27.73
-22.66
-17.45
-12.2
-7.1
-2.42
1.61
4.83
7.35
9.35
11.18
12.99
14.84
16.64
18.21
19.46
20.3
20.84
21.14
21.32
21.44
21.49
21.42
21.01
20.09
18.39
15.85
12.56
8.74
4.76
0.93
-2.48
-5.43
-7.92
-10.21
-12.57
-15.35
-18.83
-23.04
-27.74
-32.3
-36
-38.09
-38.16
-36.12
-32.24
-27.05
-20.99
-14.59
-8.18
-2.12
3.31
7.87
11.44
14.11
16.08
17.71
19.25
20.86
22.49
23.92
24.97
25.5
25.72
25.86
26.31
27.22
28.53
29.9
30.93
31.36
31.09
30.32
29.19
27.86
26.28
24.32
21.91
19.03
15.87
12.62
9.5
6.51
3.5
0.18
-3.79
-8.59
-14.17
-20.05
-25.58
-29.96
-32.57
-33.11
-31.67
-28.68
-24.64
-20.05
-15.19
-10.28
-5.37
-0.62
3.76
7.62
10.88
13.63
16.03
18.25
20.32
22.12
23.52
24.45
25.07
25.63
26.42
27.47
28.62
29.5
29.76
29.33
28.3
27.02
25.7
24.43
23.04
21.27
18.92
15.89
12.32
8.41
4.48
0.66
-2.9
-6.23
-9.51
-12.99
-16.89
-21.24
-25.89
-30.35
-34.09
-36.59
-37.6
-37.13
-35.38
-32.63
-29.03
-24.71
-19.69
-14.09
-8.21
-2.41
2.82
7.18
10.41
12.5
13.5
13.52
12.75
11.41
9.89
8.57
7.92
8.1
9.02
10.33
11.48
12.05
11.77
10.74
9.18
7.46
5.79
4.26
2.81
1.27
-0.4
-2.27
-4.27
-6.37
-8.57
-10.95
-13.66
-16.81
-20.41
-24.23
-27.96
-31.05
-33.13
-33.96
-33.52
-32.03
-29.7
-26.75
-23.26
-19.32
-15.02
-10.63
-6.46
-2.81
0.08
2.24
3.76
4.91
5.86
6.75
7.65
8.57
9.64
10.91
12.49
14.27
16.06
17.59
18.61
19.09
19.1
18.9
18.57
18.16
17.42
16.02
13.76
10.63
6.99
3.32
0.17
-2.22
-3.9
-5.24
-6.81
-9.05
-12.28
-16.39
-21.12
-25.88
-30.16
-33.48
-35.51
-36.2
-35.55
-33.78
-31.01
-27.51
-23.47
-19.17
-14.9
-10.84
-7.12
-3.62
-0.28
3.03
6.28
9.36
12.13
14.53
16.64
18.57
20.48
22.33
24.06
25.48
26.44
26.91
26.88
26.53
25.86
24.96
23.74
22.15
20.16
17.8
15.28
12.79
10.62
8.83
7.35
5.87
4.01
1.41
-2.2
-6.77
-12.16
-17.88
-23.41
-28.12
-31.43
-32.92
-32.39
-29.98
-26.01
-21.08
-15.76
-10.54
-5.76
-1.52
2.18
5.47
8.37
10.92
13.01
14.61
15.73
16.5
17.15
17.85
18.77
19.82
20.86
21.69
22.19
22.36
22.25
21.96
21.42
20.62
19.4
17.75
15.68
13.27
10.69
8
5.37
2.78
0.25
-2.27
-4.9
-7.79
-11.08
-14.79
-18.91
-23.11
-27.05
-30.23
-32.26
-32.95
-32.29
-30.56
-28.04
-25.02
-21.61
-17.9
-13.99
-10.06
-6.38
-3.19
-0.71
1.12
2.33
3.11
3.55
3.72
3.72
3.61
3.55
3.59
3.81
4.13
4.48
4.75
4.83
4.74
4.38
3.75
2.77
1.36
-0.57
-3.06
-6.03
-9.3
-12.57
-15.65
-18.43
-21.12
-24.04
-27.48
-31.48
-35.62
-39.25
-41.53
-41.96
-40.34
-36.95
-32.4
-27.26
-22.03
-16.91
-12.05
-7.38
-3.08
0.7
3.73
5.9
7.38
8.51
9.8
11.54
13.78
16.15
18.09
19.19
19.32
18.82
18.15
17.78
17.82
18.04
17.96
17.09
15.23
12.48
9.29
6.13
3.42
1.29
-0.4
-1.94
-3.69
-5.85
-8.58
-11.82
-15.51
-19.46
-23.43
-27.06
-29.89
-31.47
-31.43
-29.68
-26.37
-21.87
-16.66
-11.2
-5.86
-0.81
3.8
7.99
11.75
15.07
17.98
20.53
22.82
24.91
26.84
28.49
29.72
30.37
30.37
29.8
28.83
27.74
26.65
25.63
24.5
23
20.86
17.94
14.39
10.57
7
3.96
1.48
-0.82
-3.52
-7.05
-11.55
-16.65
-21.75
-26.14
-29.38
-31.21
-31.59
-30.62
-28.34
-24.91
-20.54
-15.68
-10.75
-6.2
-2.29
0.91
3.47
5.6
7.48
9.27
11
12.62
14.03
15.1
15.8
16.13
16.34
16.59
17.07
17.74
18.39
18.75
18.47
17.48
15.73
13.44
10.72
7.7
4.5
1.15
-2.18
-5.4
-8.45
-11.52
-14.84
-18.68
-23.08
-27.72
-32.01
-35.18
-36.71
-36.3
-34.12
-30.55
-26.09
-21.21
-16.2
-11.28
-6.51
-2.01
2.11
5.67
8.53
10.67
12.11
13.12
13.87
14.59
15.32
16.03
16.67
17.2
17.68
18.12
18.52
18.66
18.31
17.22
15.22
12.36
8.8
4.89
0.89
-2.91
-6.5
-9.99
-13.7
-17.97
-22.94
-28.5
-34.07
-38.97
-42.46
-44.11
-43.9
-42.1
-39.11
-35.2
-30.55
-25.2
-19.31
-13.11
-6.99
-1.32
3.68
7.93
11.58
14.69
17.36
19.55
21.18
22.26
22.81
22.99
22.91
22.78
22.63
22.49
22.31
21.96
21.33
20.29
18.88
17.1
15.08
12.94
10.74
8.56
6.4
4.31
2.23
0.12
-2.22
-5.03
-8.52
-12.7
-17.25
-21.64
-25.1
-27.1
-27.21
-25.42
-21.9
-16.92
-10.67
-3.27
5.06
14.03
23.1
31.72
39.46
46.09
51.73
56.65
61.22
65.73
70.54
75.87
81.69
87.63
92.68
95.62
95.23
91.04
83.49
73.98
64.37
56.3
50.78
47.88
47.18
47.85
49.3
51.16
53.42
56.33
60.2
65.39
72
79.94
88.68
97.4
105.02
110.39
112.71
111.81
108.59
105
103.67
106.89
115.38
127.55
139.51
146.39
143.96
130.41
106.87
76.77
44.39
13.12
-15.32
-41
-64.82
-87.81
-110.52
-133.17
-156.18
-180.48
-207.61
-239.03
-275.52
-316.39
-359.62
-402.34
-441.76
-475.85
-503.28
-523.11
-534.18
-535.13
-524.99
-504.01
-474.29
-439.5
-404.04
-371.55
-344.18
-322.33
-305.22
-291.67
-280.58
-271.13
-262.67
-254.52
-245.97
-236.52
-225.88
-214.14
-201.68
-188.88
-176.05
-163.29
-150.53
-137.65
-124.64
-111.72
-99.23
-87.66
-77.3
-68.25
-60.32
-53.12
-46.21
-39.29
-32.22
-25.02
-17.82
-10.57
-3.14
4.79
13.5
23.11
33.49
44.2
54.74
64.57
73.48
81.53
89.01
96.28
103.52
110.62
117.27
123.13
127.93
131.82
135.21
138.74
143.1
148.78
156.03
164.63
173.92
182.7
189.64
193.58
194.1
191.87
188.46
185.84
185.59
188.34
193.49
199.64
205.1
208.47
209.04
206.64
201.62
194.47
185.81
176.24
166.28
156.46
147.21
139.08
132.53
128.05
125.76
125.31
125.81
126.12
125.36
123.31
120.59
118.13
116.62
115.83
114.4
110.26
101.31
86.48
66.06
41.82
16.29
-7.81
-28.37
-43.99
-53.78
-57.09
-53.29
-42.27
-24.75
-2.69
21
43.28
61.8
75.55
84.61
89.7
91.48
90.45
87.16
82.54
78.16
75.84
77.19
82.78
92.19
103.96
116.39
127.99
137.87
145.92
152.63
158.87
165.39
172.81
181.42
191.37
202.82
215.81
230.33
246.04
262.31
278.37
293.58
307.72
320.97
333.9
347.02
360.34
373
383.23
388.87
388.01
379.82
364.72
344.37
320.91
296.36
272.11
248.9
227.02
206.64
188.03
171.32
156.51
143.19
130.83
118.92
107.16
95.6
84.37
73.64
63.31
53.19
42.94
32.34
21.43
10.45
-0.23
-10.32
-19.79
-28.91
-38.13
-47.85
-58.22
-69.02
-79.84
-90.14
-99.65
-108.4
-116.8
-125.47
-135.05
-146.15
-158.92
-173.08
-187.49
-200.43
-209.87
-214.12
-212.66
-206.43
-197.75
-189.38
-183.65
-181.48
-182.27
-184.44
-186.22
-186.56
-185.28
-182.87
-179.89
-176.7
-173.19
-169.17
-164.65
-159.86
-155.29
-151.19
-147.48
-143.63
-139.08
-133.49
-127.03
-120.36
-114.24
-109.34
-105.79
-103.27
-101.13
-98.81
-96.07
-93.02
-90.1
-87.73
-86.22
-85.56
-85.5
-85.59
-85.31
-84.21
-81.8
-77.79
-72.04
-64.82
-56.69
-48.5
-41.08
-35
-30.47
-27.26
-25.02
-23.27
-21.75
-20.32
-18.96
-17.8
-16.98
-16.66
-16.9
-17.71
-18.87
-20.25
-21.71
-23.17
-24.53
-25.36
-25.12
-23.15
-19.26
-13.82
-7.81
-2.34
1.94
4.94
7.03
8.35
8.6
6.96
2.71
-4.22
-13.04
-22.3
-30.58
-36.91
-40.99
-42.84
-42.41
-39.45
-33.61
-24.95
-13.99
-2.03
9.52
19.22
26.03
29.44
29.3
25.95
19.76
11.36
1.39
-9.25
-19.46
-28.05
-33.76
-35.75
-33.7
-28.25
-20.67
-12.75
-6.17
-2.15
-1.17
-2.94
-6.65
-11.18
-15.55
-18.9
-20.76
-21.13
-20.65
-20.75
-23.36
-30.53
-43.43
-61.95
-84.3
-107.61
-128.69
-144.87
-154.49
-156.72
-151.49
-139.08
-120.2
-96.07
-68.35
-38.93
-9.41
18.96
45.37
68.81
87.99
101.34
107.58
106.44
98.96
87.5
74.8
63.46
55.05
50.02
47.99
47.99
49.08
50.34
51.1
50.83
49.16
45.97
41.43
36.05
30.53
25.71
22.24
20.54
20.48
21.46
22.44
22.11
19.27
12.94
2.8
-10.89
-27.22
-44.86
-62.41
-78.59
-92.51
-103.51
-111.19
-115.19
-115.27
-111.44
-104.06
-94.08
-82.69
-71.27
-60.84
-51.97
-44.68
-38.71
-33.69
-29.32
-25.44
-21.84
-18.39
-14.86
-11.24
-7.64
-4.41
-1.97
-0.57
-0.27
-0.83
-1.93
-3.3
-4.8
-6.39
-7.96
-9.24
-9.79
-9.31
-7.69
-5.27
-2.79
-0.97
-0.3
-0.77
-2.02
-3.46
-4.8
-6.03
-7.38
-9.13
-11.18
-13.06
-14.02
-13.4
-10.86
-6.58
-1.16
4.73
10.42
15.53
19.86
23.45
26.37
28.81
30.88
32.73
34.45
36
37.31
38.19
38.48
37.98
36.52
34.06
30.58
26.32
21.55
16.73
12.28
8.56
5.78
3.91
2.85
2.4
2.4
2.63
2.92
2.99
2.55
1.41
-0.49
-3.02
-5.93
-8.87
-11.74
-14.55
-17.49
-20.71
-24.07
-27.17
-29.35
-30.04
-28.81
-25.73
-21.27
-16.07
-10.79
-5.83
-1.29
2.96
7.05
11.01
14.59
17.41
19.17
19.76
19.46
18.61
17.66
16.8
16.01
15.24
14.43
13.76
13.43
13.66
14.39
15.33
16.04
16.08
15.34
14.06
12.83
12.3
13.03
15.11
18.22
21.66
24.6
26.43
26.8
25.75
23.52
20.53
17.19
13.91
11.1
9.08
8.17
8.39
9.64
11.56
13.73
15.68
16.97
17.29
16.42
14.4
11.4
7.68
3.41
-1.41
-6.96
-13.5
-21.08
-29.46
-37.93
-45.62
-51.78
-56.02
-58.41
-59.31
-59.31
-58.9
-58.55
-58.62
-59.41
-61.11
-63.71
-66.99
-70.47
-73.71
-76.28
-77.97
-78.64
-78.1
-76.05
-72.08
-65.96
-57.73
-47.92
-37.37
-27.08
-17.9
-10.26
-4.17
0.88
5.5
10.33
15.61
21.25
26.79
31.59
35.17
37.27
37.99
37.59
36.52
35.18
33.97
33.29
33.45
34.8
37.43
41.22
45.72
50.25
54.05
56.47
57.18
56.19
53.96
51.1
48.25
45.77
43.6
41.32
38.32
34.2
28.89
22.88
16.79
11.27
6.73
3.21
0.66
-1.05
-1.79
-1.52
-0.15
2.11
4.77
7.19
8.64
8.61
6.79
3.25
-1.75
-7.64
-13.76
-19.42
-23.9
-26.74
-27.57
-26.38
-23.47
-19.56
-15.62
-12.73
-11.77
-13.07
-16.43
-21.06
-26.04
-30.58
-34.29
-37.19
-39.42
-41.17
-42.29
-42.54
-41.46
-38.74
-34.22
-27.89
-19.97
-10.74
-0.76
9.35
18.75
26.64
32.37
35.49
35.98
34.07
30.4
25.74
20.97
16.77
13.57
11.45
10.2
9.56
9.27
9.27
9.49
9.87
10.23
10.24
9.65
8.33
6.43
4.14
1.79
-0.55
-2.85
-5.14
-7.48
-9.73
-11.69
-12.97
-13.24
-12.2
-9.77
-6.07
-1.48
3.5
8.45
13.01
17.1
20.67
23.69
26.01
27.36
27.57
26.6
24.74
22.36
19.95
17.82
16.13
14.9
13.97
13.23
12.53
11.83
11.11
10.36
9.68
9.09
8.63
8.25
7.93
7.5
6.83
5.7
3.83
1.05
-2.67
-6.98
-11.28
-14.74
-16.73
-16.96
-15.65
-13.4
-10.86
-8.57
-6.62
-4.94
-3.34
-1.83
-0.65
-0.14
-0.53
-1.69
-3.29
-4.77
-5.7
-5.87
-5.33
-4.39
-3.45
-2.89
-2.88
-3.46
-4.44
-5.57
-6.67
-7.67
-8.76
-10.21
-12.36
-15.36
-19.28
-23.95
-29.07
-34.26
-38.96
-42.65
-44.79
-45.12
-43.62
-40.6
-36.55
-31.92
-27.07
-22.08
-17.04
-11.97
-7.03
-2.47
1.44
4.44
6.35
7.06
6.66
5.32
3.4
1.18
-1.1
-3.33
-5.46
-7.37
-8.91
-9.8
-9.91
-9.26
-8.15
-7.09
-6.53
-6.9
-8.31
-10.7
-13.8
-17.23
-20.48
-22.93
-24.09
-23.59
-21.44
-17.93
-13.65
-9.18
-5.03
-1.44
1.68
4.52
7.41
10.49
13.76
16.97
19.75
21.78
22.85
23.01
22.44
21.45
20.24
18.94
17.52
15.88
14
11.93
9.88
7.99
6.39
4.98
3.51
1.63
-1.09
-4.92
-9.97
-16.04
-22.7
-29.26
-34.9
-38.92
-40.82
-40.51
-38.13
-34.14
-28.93
-22.92
-16.42
-9.71
-3.13
3.01
8.38
12.9
16.55
19.48
21.83
23.61
24.83
25.43
25.55
25.4
25.32
25.51
25.99
26.6
26.95
26.72
25.63
23.68
20.99
17.89
14.65
11.51
8.61
5.92
3.4
0.87
-1.82
-4.83
-8.32
-12.2
-16.22
-19.75
-22.09
-22.49
-20.66
-16.69
-11.14
-4.84
1.48
7.3
12.53
17.23
21.58
25.57
29
31.6
33.12
33.67
33.48
33.1
32.9
33.08
33.5
33.82
33.79
33.27
32.47
31.59
30.81
30.07
29.1
27.58
25.23
22.06
18.21
14.04
9.82
5.8
1.99
-1.78
-5.69
-9.97
-14.68
-19.77
-24.95
-29.75
-33.57
-35.86
-36.26
-34.69
-31.52
-27.29
-22.71
-18.21
-14.02
-10.06
-6.15
-2.29
1.43
4.76
7.57
9.84
11.74
13.45
15.03
16.49
17.74
18.95
20.27
21.98
24.06
26.16
27.68
27.91
26.44
23.22
18.63
13.19
7.45
1.8
-3.6
-8.64
-13.32
-17.54
-21.37
-24.82
-28.07
-31.37
-34.88
-38.6
-42.09
-44.56
-44.87
-42.14
-35.99
-26.87
-16.03
-4.98
4.92
13.06
19.46
24.65
29.07
32.85
35.77
37.47
37.91
37.44
36.79
36.58
37.21
38.51
39.91
40.81
40.75
39.81
38.32
36.92
35.94
35.39
34.88
33.79
31.74
28.67
25.07
21.64
19.02
17.34
16.07
14.24
10.67
4.57
-4.37
-15.78
-28.85
-42.46
-55.24
-65.72
-72.39
-74.17
-70.61
-62.47
-51.33
-39.25
-27.94
-18.22
-9.99
-2.63
4.15
10.15
14.47
16.26
15.27
12.12
8.1
4.48
2.03
0.62
-0.48
-2.24
-5.4
-10.24
-16.76
-24.65
-33.62
-43.28
-53.28
-63.2
-72.63
-81.37
-89.35
-96.82
-104.02
-111.22
-118.48
-125.79
-133.3
-141.47
-151.27
-163.88
-180.36
-200.72
-223.75
-246.89
-266.86
-280.8
-287.16
-286.31
-280.29
-272.23
-265.18
-261.35
-261.64
-265.56
-271.64
-277.76
-281.78
-281.81
-276.67
-266.07
-250.6
-231.68
-211.01
-190.33
-170.94
-153.61
-138.53
-125.41
-113.73
-102.83
-92.19
-81.46
-70.68
-60.08
-50.16
-41.34
-33.83
-27.57
-22.19
-17.21
-12.1
-6.57
-0.57
5.73
12.05
18.08
23.65
28.75
33.44
37.84
41.99
45.75
48.91
51.19
52.42
52.65
52.21
51.64
51.58
52.57
54.88
58.47
63.02
68.12
73.42
78.83
84.45
90.48
97.11
104.24
111.55
118.54
124.78
130.01
134.36
138.23
142.26
147.21
153.79
162.53
173.43
185.74
197.83
207.48
212.54
211.62
204.76
193.28
179.32
164.98
151.72
140.12
130.14
121.6
114.4
108.76
104.9
103.02
103.04
104.73
107.81
111.99
117.07
122.73
128.59
134.02
138.32
140.78
140.92
138.67
134.44
129.13
123.85
119.74
117.52
117.41
118.89
120.85
121.99
121.13
117.82
112.33
105.62
98.79
92.61
87.3
82.5
77.74
72.67
67.28
61.74
56.22
50.66
44.84
38.59
31.85
24.87
17.87
11.06
4.45
-1.99
-8.25
-14.12
-19.23
-23.21
-25.74
-26.74
-26.23
-24.34
-21.32
-17.42
-13.03
-8.54
-4.31
-0.46
2.95
6.02
8.83
11.43
13.83
16
18.04
20
21.95
23.85
25.63
27.17
28.38
29.31
29.94
30.31
30.31
29.77
28.51
26.44
23.69
20.56
17.5
14.81
12.64
10.82
9.01
6.78
3.78
-0.06
-4.58
-9.32
-13.71
-17.12
-19.06
-19.27
-17.71
-14.69
-10.61
-5.99
-1.2
3.5
7.97
12.17
16.01
19.44
22.4
24.94
27.14
29.13
31
32.78
34.43
35.85
37.01
37.86
38.42
38.72
38.82
38.79
38.67
38.48
38.12
37.52
36.51
35.02
32.97
30.34
27.17
23.53
19.58
15.48
11.38
7.3
3.19
-1.06
-5.55
-10.14
-14.55
-18.32
-21.01
-22.33
-22.19
-20.71
-18.13
-14.75
-10.81
-6.55
-2.14
2.2
6.28
9.96
13.13
15.86
18.29
20.67
23.15
25.83
28.53
31
32.98
34.34
35.2
35.82
36.52
37.46
38.57
39.6
40.2
40.17
39.45
38.22
36.74
35.23
33.83
32.5
31.2
29.79
28.26
26.56
24.76
23.01
21.55
20.69
20.75
22
24.42
27.74
31.35
34.53
36.55
36.99
35.85
33.48
30.44
27.08
23.47
19.2
13.82
7.07
-0.86
-9.31
-17.46
-24.56
-30.18
-34.11
-36.18
-36.26
-34.24
-30.41
-25.46
-20.56
-16.86
-15.18
-15.7
-18.04
-21.51
-25.46
-29.5
-33.46
-37.37
-41.24
-45.05
-48.7
-51.99
-54.63
-56.23
-56.47
-55.16
-52.34
-48.24
-43.21
-37.66
-31.89
-26.16
-20.62
-15.39
-10.5
-5.99
-1.93
1.58
4.42
6.52
7.91
8.77
9.36
9.9
10.46
10.9
11.03
10.68
9.85
8.63
7.15
5.5
3.67
1.62
-0.66
-3.04
-5.41
-7.65
-9.86
-12.3
-15.3
-19.1
-23.63
-28.45
-32.74
-35.7
-36.61
-35.18
-31.54
-26.16
-19.77
-13.08
-6.76
-1.21
3.35
6.93
9.65
11.62
13
13.86
14.39
14.78
15.31
16.14
17.33
18.73
20.06
21.06
21.55
21.51
21.02
20.15
18.94
17.36
15.39
13
10.3
7.36
4.36
1.43
-1.38
-4.07
-6.8
-9.69
-12.86
-16.11
-19.08
-21.12
-21.61
-20.14
-16.63
-11.4
-4.95
2.08
9.16
15.8
21.58
26.14
29.2
30.67
30.69
29.62
27.91
26.02
24.22
22.49
20.66
18.43
15.63
12.23
8.47
4.7
1.37
-1.27
-3.19
-4.54
-5.64
-6.68
-7.79
-8.91
-9.94
-10.85
-11.74
-12.87
-14.49
-16.81
-19.79
-23.23
-26.69
-29.61
-31.46
-31.82
-30.51
-27.54
-23.22
-17.94
-12.14
-6.26
-0.6
4.58
9.08
12.72
15.44
17.22
18.21
18.67
18.89
19.16
19.63
20.4
21.39
22.51
23.59
24.41
24.79
24.51
23.4
21.26
18.01
13.62
8.17
1.94
-4.73
-11.42
-17.81
-23.67
-28.97
-33.79
-38.26
-42.43
-46.14
-49.03
-50.54
-50.2
-47.67
-42.97
-36.5
-28.93
-21.1
-13.71
-7.26
-1.9
2.36
5.65
8.07
9.71
10.64
11.01
11.04
10.94
10.97
11.21
11.65
12.15
12.51
12.57
12.16
11.23
9.73
7.7
5.21
2.34
-0.8
-4.14
-7.56
-11.01
-14.38
-17.67
-20.94
-24.37
-28.18
-32.42
-36.88
-40.98
-43.94
-44.99
-43.71
-40.2
-35.02
-28.95
-22.63
-16.47
-10.54
-4.81
0.7
5.84
10.31
13.92
16.62
18.6
20.14
21.52
22.84
24.09
25.11
25.78
26.12
26.19
26.17
26.14
26.08
25.79
24.98
23.42
20.97
17.78
14.14
10.41
6.81
3.45
0.2
-3.09
-6.54
-10.26
-14.25
-18.48
-22.84
-27.05
-30.66
-33.1
-33.91
-32.81
-29.92
-25.58
-20.34
-14.66
-8.87
-3.23
2.11
6.96
11.2
14.77
17.76
20.29
22.49
24.46
26.21
27.78
29.2
30.56
31.87
33.04
33.87
34.12
33.68
32.59
31.07
29.33
27.54
25.7
23.73
21.54
19.06
16.36
13.49
10.57
7.62
4.69
1.77
-1.21
-4.29
-7.63
-11.33
-15.49
-20
-24.61
-28.86
-32.15
-33.95
-33.86
-31.82
-28.08
-23.12
-17.48
-11.66
-6.06
-0.85
3.86
8.01
11.55
14.43
16.62
18.15
19.15
19.73
20.05
20.18
20.2
20.1
19.84
19.42
18.81
18.04
17.11
16.13
15.15
14.27
13.5
12.79
12.04
11.06
9.72
7.94
5.8
3.42
0.97
-1.41
-3.77
-6.2
-8.93
-12.15
-15.97
-20.31
-24.91
-29.36
-33.23
-36.13
-37.69
-37.76
-36.23
-33.18
-28.88
-23.75
-18.34
-13.16
-8.6
-4.81
-1.78
0.66
2.67
4.36
5.84
7.19
8.55
10
11.6
13.24
14.75
15.88
16.41
16.26
15.51
14.39
13.13
11.94
10.85
9.81
8.66
7.23
5.5
3.53
1.53
-0.3
-1.84
-3.18
-4.58
-6.4
-9.02
-12.55
-16.83
-21.27
-25.11
-27.5
-27.85
-25.95
-21.93
-16.27
-9.53
-2.33
4.84
11.61
17.8
23.41
28.57
33.45
37.95
41.74
44.21
44.81
43.35
40.13
36.02
32.06
29.19
27.87
28.12
29.53
31.47
33.38
34.79
35.45
35.26
34.23
32.38
29.7
26.14
21.64
16.29
10.27
3.95
-2.29
-8.15
-13.54
-18.63
-23.79
-29.49
-36.03
-43.46
-51.44
-59.47
-67.06
-73.93
-80.06
-85.37
-89.56
-91.88
-91.49
-87.72
-80.56
-70.72
-59.3
-47.35
-35.39
-23.45
-11.29
1.02
12.84
23.11
30.7
35.04
36.26
35.38
33.78
32.88
33.72
36.76
41.88
48.45
55.56
62.22
67.78
72.07
75.6
79.37
84.46
91.55
100.52
110.49
120.09
128.08
133.7
137.05
138.95
140.69
143.78
149.31
157.64
167.84
177.65
183.83
183.04
173.1
153.76
127.05
96.44
65.68
37.5
13.01
-8.03
-26.45
-42.66
-56.38
-66.91
-73.92
-77.96
-80.56
-83.67
-88.75
-96.26
-105.5
-115.16
-123.95
-131.14
-136.65
-140.85
-144.28
-147.28
-150
-152.4
-154.37
-155.74
-156.34
-156.03
-154.72
-152.42
-149.11
-144.85
-139.63
-133.56
-126.82
-119.69
-112.46
-105.36
-98.61
-92.39
-87
-82.68
-79.48
-77.19
-75.34
-73.49
-71.25
-68.46
-64.94
-60.53
-55.08
-48.56
-41.45
-34.62
-29.2
-25.97
-25.02
-25.6
-26.45
-26.33
-24.43
-20.56
-15.02
-8.47
-1.56
5.07
11.02
16.15
20.72
25.33
30.64
37.04
44.3
51.54
57.44
60.75
60.81
57.66
52.16
45.56
39.34
34.76
32.78
33.81
37.69
43.64
50.48
56.91
61.83
64.58
65.03
63.52
60.68
57.31
54.24
52.07
51.14
51.31
52.05
52.54
52.04
50.1
46.78
42.74
38.97
36.66
36.71
39.43
44.35
50.35
55.95
59.84
61.4
60.81
59.03
57.32
56.72
57.63
59.75
62.35
64.69
66.43
67.7
68.84
69.96
70.7
70.27
67.81
62.87
55.77
47.48
39.16
31.72
25.54
20.5
16.39
13
10.32
8.33
6.9
5.65
4.07
1.69
-1.76
-6.21
-11.42
-17.04
-23
-29.48
-36.82
-45.27
-54.58
-64.04
-72.48
-78.77
-82.17
-82.59
-80.46
-76.34
-70.77
-64.14
-57.03
-50.27
-44.92
-41.79
-41.03
-41.94
-43.16
-43.4
-41.89
-38.62
-34.11
-28.94
-23.44
-17.69
-11.75
-5.92
-0.69
3.45
6.24
7.76
8.28
8.07
7.43
6.68
6.39
7.23
9.78
14.16
19.81
25.72
30.76
34.16
35.69
35.62
34.32
32.07
28.86
24.51
18.88
11.95
3.91
-4.99
-14.44
-24.24
-34.24
-44.42
-54.86
-65.73
-77.23
-89.3
-101.5
-112.78
-121.58
-126.31
-125.84
-120.04
-109.89
-97.18
-83.81
-71.24
-60.1
-50.31
-41.47
-33.27
-25.71
-19.02
-13.41
-8.76
-4.6
-0.26
4.86
10.98
17.85
24.77
30.9
35.48
38.12
38.86
38.15
36.69
35.11
33.8
32.64
30.99
27.8
22
12.98
0.81
-13.66
-29.13
-44.26
-58.03
-69.88
-79.51
-86.72
-91.26
-93.02
-92.22
-89.52
-85.81
-81.89
-78.27
-75.26
-73.3
-73.31
-76.68
-84.64
-97.48
-113.72
-129.85
-140.95
-142.06
-130
-104.68
-69.48
-30.23
6.59
35.92
55.41
65.38
68.02
66.01
61.68
56.71
52.32
49.34
47.94
47.19
44.86
38.06
24.34
3.11
-23.67
-51.93
-76.77
-94.15
-102.04
-100.8
-92.27
-78.81
-62.27
-43.72
-23.73
-2.83
18.12
38.07
56.13
71.95
85.58
97.15
106.46
112.82
115.43
113.81
108.3
99.92
90.02
79.68
69.36
58.96
48.09
36.69
25.24
14.8
6.51
1.15
-1.25
-1.51
-0.81
-0.32
-0.73
-2.12
-4.17
-6.6
-9.49
-13.26
-18.52
-25.45
-33.71
-42.2
-49.55
-54.45
-56.07
-54.34
-49.82
-43.62
-36.96
-31.03
-26.56
-23.69
-21.94
-20.27
-17.55
-12.87
-6
2.68
12.28
21.95
31.2
40.04
48.87
58.06
67.67
77.25
86.1
93.52
99.26
103.72
107.74
112.31
117.83
124.02
129.7
133.39
133.85
130.57
123.97
115.11
105.25
95.29
85.75
76.51
67.06
56.46
43.66
27.91
9.47
-9.83
-26.8
-37.7
-39.63
-31.78
-15.71
5.31
27.7
48.83
67.66
84.23
98.96
111.97
123.02
132.19
140.2
148.57
158.86
172.01
187.8
204.9
221.51
235.92
246.97
254.01
256.72
254.89
248.36
237.22
221.88
203.09
181.64
158.34
133.76
108.41
82.64
56.68
30.53
4.12
-22.47
-48.73
-73.44
-95
-111.82
-123.02
-128.8
-130.37
-129.56
-128.13
-127.4
-127.98
-130.01
-133.45
-138.31
-144.61
-152.21
-160.64
-169.01
-176.27
-181.43
-183.82
-183.21
-179.56
-173.08
-164.04
-153.14
-141.39
-130.04
-120.16
-112.18
-105.64
-99.3
-91.9
-82.85
-72.83
-63.49
-56.84
-54.34
-56.24
-61.68
-69.13
-77.17
-84.92
-92.03
-98.46
-104.14
-108.82
-112.12
-113.83
-113.78
-112.07
-108.87
-104.53
-99.65
-95.01
-91.51
-89.87
-90.66
-94.08
-100.04
-108.01
-116.9
-125.16
-131.17
-133.88
-133.35
-130.99
-129.01
-129.51
-133.62
-140.91
-149.75
-157.98
-163.7
-165.75
-163.83
-158.4
-150.64
-142.5
-136.42
-135.04
-140.17
-152.07
-168.81
-186.46
-199.96
-204.55
-197.26
-177.64
-147.83
-111.62
-73.13
-35.53
-0.28
33
66
100.63
137.97
177.29
215.91
249.87
275.01
288.37
289.09
278.68
260.5
239.2
219.6
205.85
200.54
203.89
213.46
224.64
231.98
230.93
219.44
198.35
170.5
139.26
107.08
75.34
45.08
18.1
-2.62
-13.62
-12.56
0.46
22.78
50.04
78.1
104.33
128.05
149.82
170.44
190.18
208.43
223.99
235.18
240.23
237.36
225.09
202.55
169.7
127.39
77.38
22.48
-33.24
-84.35
-124.72
-149.1
-154.88
-143.6
-120.82
-94.54
-72.54
-60.3
-59.92
-70.68
-90.38
-116.38
-146.29
-177.79
-208.64
-236.67
-260.25
-278.51
-291.28
-298.95
-302.12
-301.91
-300.02
-298.71
-300.03
-304.89
-312.37
-319.97
-324.76
-324.62
-319
-308.66
-294.77
-278.18
-259.25
-238.18
-215.47
-191.85
-167.64
-142.46
-115.38
-86
-55.3
-25.76
-0.47
18.44
30.62
37.45
40.95
42.74
43.56
43.74
43.89
45.16
48.95
55.92
65.57
76.2
85.8
92.9
97.14
99.05
99.52
99.27
98.56
97.27
95.16
91.93
87.56
82.34
77.11
73.07
71.54
73.44
78.85
87.1
96.97
107.31
117.23
126.21
133.77
139.38
142.53
143.05
141.48
138.87
136.44
134.96
134.56
134.83
135.32
135.89
136.61
137.6
138.68
139.51
139.71
139.22
138.31
137.37
136.64
136.06
135.42
134.52
133.41
132.24
131.01
129.47
127.18
123.77
119.26
114.19
109.28
105.12
101.82
99.01
96.11
92.7
88.61
83.89
78.68
73.07
67.4
62.39
59.17
58.86
61.9
67.62
74.35
80.32
84.54
87.43
90.35
94.55
100.16
105.82
109.47
109.51
105.81
99.62
92.71
86.25
80.17
73.68
66.18
58.07
50.79
45.84
43.75
43.38
42.34
38.23
30
18.58
6.41
-3.83
-10.62
-14.08
-15.77
-17.54
-20.58
-24.74
-28.9
-31.79
-32.82
-32.62
-32.74
-35.04
-40.82
-50.35
-62.87
-76.86
-90.77
-103.31
-113.84
-122.24
-128.84
-134.14
-138.66
-142.86
-146.93
-150.79
-154.01
-156.06
-156.39
-154.94
-152.16
-149.03
-146.84
-146.76
-149.55
-155.31
-163.62
-173.51
-183.75
-193.03
-199.98
-203.39
-202.17
-195.61
-183.45
-165.92
-143.84
-118.42
-91.15
-63.53
-36.93
-12.47
8.98
26.75
40.28
49.21
53.54
53.71
50.58
45.1
37.91
29.1
18.28
5.13
-9.86
-24.77
-36.22
-40.13
-33.29
-14.79
13.14
45.55
76.44
100.5
114.53
117.59
110.31
93.83
69.25
37.88
1.91
-35.1
-68.47
-93.58
-107.38
-109.54
-102.59
-90.94
-79.29
-70.98
-66.96
-65.72
-64.19
-59.19
-48.9
-33.55
-15.28
2.9
18.4
29.98
37.75
42.67
45.68
47.12
46.76
44.31
39.9
34.22
28.29
22.91
18.31
14.09
9.49
3.92
-2.83
-10.47
-18.49
-26.42
-34.04
-41.44
-48.84
-56.39
-63.99
-71.15
-77.03
-80.69
-81.31
-78.51
-72.52
-64.1
-54.29
-44.14
-34.53
-26
-18.88
-13.3
-9.26
-6.58
-4.89
-3.61
-2.08
0.18
3.39
7.31
11.47
15.36
18.6
21.07
22.81
23.92
24.38
24.08
22.82
20.43
16.82
11.95
6.01
-0.63
-7.34
-13.3
-17.69
-19.89
-19.66
-17.19
-13.03
-7.75
-1.83
4.5
11.23
18.38
25.89
33.47
40.71
47.12
52.37
56.29
58.97
60.71
61.85
62.8
63.78
64.88
65.98
66.79
66.98
66.34
64.97
63.13
61.22
59.47
57.83
55.94
53.36
49.84
45.42
40.51
35.58
31.11
27.33
24.42
22.57
22.08
23.29
26.35
31.16
37.26
44.01
50.8
57.16
62.81
67.47
70.89
72.75
72.89
71.44
68.84
65.72
62.72
60.28
58.58
57.55
56.96
56.56
56.01
55.07
53.55
51.37
48.61
45.38
41.84
38.03
33.95
29.58
24.92
20.04
15.05
10.13
5.55
1.78
-0.51
-0.6
2.18
8.05
16.75
27.5
39.35
51.25
62.48
72.62
81.42
88.74
94.28
97.71
98.5
96.25
90.8
82.47
72.24
61.53
51.87
44.37
39.45
36.59
34.62
31.92
26.62
17.1
2.21
-18.02
-42.13
-67.13
-89.28
-105.22
-113.14
-113.46
-108.4
-100.95
-93.29
-86.35
-79.61
-72.06
-63.26
-53.78
-45.15
-38.99
-36.16
-36.19
-37.69
-39.17
-39.89
-40.05
-40.22
-40.57
-40.34
-38.38
-34.03
-28.07
-22.71
-20.44
-22.67
-28.62
-35.72
-40.73
-41.27
-36.62
-27.53
-15.37
-1.29
14.06
30.27
46.7
62.41
76.37
88
97.63
106.37
115.49
125.48
135.47
142.93
144.5
137.11
119.15
91.2
55.82
16.79
-21.87
-56.63
-84.89
-105.03
-116.46
-119.62
-115.75
-106.67
-94.2
-79.8
-64.32
-48.1
-31.22
-13.62
4.73
23.85
43.44
62.81
80.73
95.73
106.62
113.02
115.48
115.15
113.34
110.95
108.29
105.29
101.71
97.67
93.68
90.6
89.18
89.7
91.48
92.95
92.22
87.8
79.43
67.97
55.03
41.97
29.39
17.1
4.75
-7.54
-19.27
-29.82
-39.28
-48.58
-59.36
-73.34
-91.69
-114.7
-141.63
-170.87
-200.14
-226.95
-249.13
-265.26
-275.04
-279.04
-278.33
-273.98
-266.94
-257.95
-247.62
-236.42
-224.42
-211.2
-195.97
-178.12
-157.72
-135.78
-113.89
-93.7
-76.28
-61.84
-49.92
-39.8
-30.86
-22.76
-15.37
-8.6
-2.25
3.91
10.1
16.22
21.91
26.56
29.59
30.71
30.03
27.94
24.9
21.26
17.2
12.88
8.58
4.74
1.88
0.36
0.29
1.43
3.42
5.85
8.41
10.9
13.18
15.12
16.69
17.99
19.27
20.95
23.43
26.94
31.47
36.73
42.33
47.87
53.08
57.78
61.89
65.38
68.18
70.37
72.05
73.42
74.65
75.86
77
77.87
78.25
77.93
76.9
75.29
73.35
71.35
69.5
67.83
66.23
64.48
62.32
59.52
55.9
51.45
46.27
40.69
35.25
30.5
26.96
24.79
23.89
23.85
24.21
24.59
24.82
24.92
25.01
25.21
25.52
25.86
26.09
26.23
26.51
27.41
29.51
33.25
38.65
45.23
52.13
58.5
63.81
68.04
71.58
75
78.72
83
87.92
93.5
99.67
106.08
112.11
116.8
119.3
119.16
116.57
112.37
107.72
103.76
101.18
100.01
99.6
98.76
96.02
90
79.97
65.95
48.93
30.41
12.11
-4.53
-18.54
-29.29
-36.44
-39.84
-39.89
-37.69
-35.27
-35.13
-39.57
-49.79
-65.39
-84.42
-104.12
-121.92
-136.16
-146.43
-153.23
-157.46
-159.96
-161.22
-161.61
-161.44
-161.07
-160.76
-160.55
-160.27
-159.63
-158.6
-157.41
-156.54
-156.36
-156.71
-156.84
-155.56
-151.93
-145.61
-137.16
-127.6
-118.02
-108.96
-100.33
-91.62
-82.08
-71.06
-57.93
-42.27
-23.77
-2.7
20.01
42.71
63.37
80.34
92.79
101.02
105.98
108.88
110.42
110.74
109.56
106.55
101.75
95.59
88.82
82.15
76.06
70.66
65.71
60.73
55.08
48.23
39.81
29.82
18.55
6.51
-5.77
-17.88
-29.5
-40.34
-49.93
-57.75
-63.24
-65.94
-65.56
-61.94
-55.06
-45.06
-32.52
-18.41
-4.08
9.27
21.03
31.42
41.26
51.25
61.39
70.75
78.01
82.26
83.85
84.36
85.97
90.38
98.01
108.04
118.98
129.63
139.67
149.38
159.06
168.32
176.16
181.41
183.53
182.82
179.95
175.1
167.57
156.33
140.98
122.84
104.58
88.84
76.36
65.05
50.75
29.59
0.59
-33.15
-65.23
-88.62
-98.57
-94.3
-78.79
-57.12
-34.56
-15.3
-2.29
2.43
-2.4
-17.09
-40.36
-69.14
-98.91
-124.73
-142.51
-149.97
-146.95
-135.19
-117.63
-97.31
-76.61
-56.45
-36.37
-15.13
8.17
33.15
58.02
80.45
98.86
113.08
124.05
132.55
138.02
138.4
131.08
114.58
89.55
58.61
24.98
-9.11
-43.42
-79.53
-119.59
-164.78
-213.94
-263.28
-307.13
-339.68
-356.99
-358.32
-346.19
-324.76
-297.74
-266.8
-231.58
-191.16
-146.01
-99.03
-54.84
-17.99
8.95
26.05
35.38
39.48
40.14
38.1
33.18
24.79
12.01
-6.33
-31.63
-64.75
-105.25
-150.85
-197.63
-240.99
-276.61
-301.26
-312.8
-310.03
-292.64
-261.42
-219.01
-170.11
-121.03
-78.35
-47.1
-29.3
-23.63
-26.27
-32.38
-37.8
-40.09
-38.82
-34.93
-29.9
-24.97
-20.66
-16.9
-13.29
-9.52
-5.48
-1.32
2.81
6.94
11.3
16.37
22.45
29.56
37.22
44.6
50.81
55.13
57.38
57.79
57.04
55.93
55.16
55.16
55.94
57.35
59.07
60.88
62.59
64.1
65.34
66.42
67.79
70.25
74.84
82.42
93.41
107.6
124.29
142.53
161.47
180.66
200.01
219.8
240.27
261.28
281.81
299.99
313.24
318.88
314.86
300.19
275.24
241.63
202.12
160.16
119.34
82.63
51.66
26.57
6.35
-10.15
-23.44
-33.07
-38.44
-39.82
-39.27
-40.62
-48.23
-65.29
-92.27
-126.4
-162.45
-194.49
-217.93
-230.86
-234.54
-232.59
-229.42
-228.48
-230.78
-234.4
-234.98
-227.13
-206.48
-171.59
-125.06
-73.35
-24.98
12.06
32.67
36.11
25.6
6.95
-13.34
-29.46
-37.17
-33.96
-19.11
6.25
39.41
76.4
112.8
144.47
168.16
181.68
183.93
175.05
156.45
130.78
101.23
70.63
40.51
10.95
-18.8
-48.96
-78.19
-103.47
-121.03
-128
-123.78
-110.38
-91.68
-71.91
-54.24
-40.08
-29.25
-20.7
-13.45
-7.12
-1.92
1.57
2.96
2.41
0.64
-1.31
-2.38
-1.95
0.07
3.27
6.97
10.52
13.38
15.24
15.85
14.97
12.31
7.54
0.54
-8.52
-19
-29.85
-39.87
-48.11
-54.18
-58.35
-61.38
-64.03
-66.67
-69
-70.26
-69.62
-66.61
-61.35
-54.46
-46.78
-38.93
-31.25
-23.69
-16.15
-8.61
-1.28
5.41
11.03
15.25
18.05
19.68
20.59
21.29
22.15
23.33
24.72
26.08
27.14
27.73
27.81
27.43
26.69
25.56
23.99
21.88
19.24
16.13
12.72
9.07
5.16
0.89
-3.92
-9.14
-14.41
-19.04
-22.26
-23.41
-22.22
-18.87
-13.81
-7.63
-0.84
6.17
13.18
20.01
26.4
32.16
37.08
41.07
44.15
46.49
48.26
49.63
50.68
51.38
51.68
51.54
50.95
49.94
48.54
46.69
44.24
41.09
37.18
32.7
27.97
23.36
19.12
15.27
11.56
7.6
3.02
-2.41
-8.62
-15.27
-21.72
-27.22
-31.02
-32.53
-31.51
-28
-22.39
-15.16
-6.9
1.84
10.57
18.76
25.96
31.8
36.13
38.99
40.72
41.69
42.29
42.75
43.12
43.32
43.25
42.86
42.13
41.19
40.18
39.18
38.26
37.31
36.2
34.7
32.66
29.95
26.56
22.54
17.87
12.51
6.33
-0.75
-8.72
-17.38
-26.33
-35.08
-42.97
-49.42
-53.74
-55.49
-54.29
-50.18
-43.52
-35
-25.42
-15.49
-5.74
3.65
12.59
21.05
28.91
35.89
41.68
46.02
48.87
50.43
51.16
51.55
51.96
52.54
53.15
53.51
53.39
52.75
51.7
50.49
49.26
48.02
46.65
44.94
42.82
40.27
37.44
34.43
31.29
27.98
24.36
20.35
15.83
10.68
4.73
-2.23
-10.38
-19.65
-29.63
-39.51
-48.17
-54.52
-57.74
-57.52
-54.16
-48.36
-41.05
-33.09
-25.16
-17.67
-10.95
-5.19
-0.56
2.89
5.32
7.1
8.73
10.63
13.02
15.77
18.58
21.08
22.98
24.19
24.76
24.82
24.48
23.85
23
21.94
20.65
19.01
16.91
14.24
11.07
7.59
4.03
0.58
-2.76
-6.12
-9.77
-13.89
-18.59
-23.77
-29.21
-34.5
-39.1
-42.45
-43.95
-43.22
-40.06
-34.64
-27.39
-18.88
-9.75
-0.54
8.29
16.42
23.59
29.67
34.57
38.3
40.96
42.68
43.71
44.29
44.68
45.02
45.34
45.53
45.37
44.72
43.46
41.65
39.44
37.07
34.64
32.14
29.46
26.36
22.74
18.57
13.98
9.14
4.21
-0.75
-5.75
-10.83
-16.07
-21.5
-27.22
-33.31
-39.83
-46.65
-53.36
-59.26
-63.44
-65.12
-63.78
-59.42
-52.49
-43.76
-34.09
-24.15
-14.39
-5.06
3.61
11.44
18.19
23.71
28.03
31.28
33.77
35.69
37.14
38.1
38.51
38.35
37.74
36.83
35.69
34.34
32.69
30.65
28.19
25.36
22.22
18.78
15.02
10.86
6.36
1.63
-3.07
-7.47
-11.45
-15.03
-18.41
-21.81
-25.42
-29.28
-33.37
-37.61
-41.92
-46.23
-50.28
-53.6
-55.48
-55.19
-52.18
-46.31
-38.01
-28.04
-17.37
-6.76
3.32
12.7
21.35
29.25
36.27
42.21
47.02
50.73
53.6
55.89
57.89
59.69
61.29
62.7
63.89
64.95
65.99
67.06
68.11
69.05
69.72
69.96
69.81
69.33
68.72
68.12
67.62
67.07
66.22
64.68
62.11
58.32
53.27
47.12
40.03
32.19
23.73
14.75
5.43
-3.99
-13.13
-21.57
-28.77
-34.17
-37.29
-37.82
-35.78
-31.59
-25.96
-19.59
-12.89
-5.59
3.16
14.44
29.17
47.42
68.28
89.82
109.43
124.23
131.56
129.31
116.14
91.85
57.57
16.12
-28.15
-69.87
-103.77
-125.89
-134.5
-130.45
-116.56
-96.74
-74.78
-53.74
-35.61
-21.49
-11.82
-6.52
-5.11
-6.72
-10.37
-15.14
-20.39
-25.7
-30.73
-35.17
-38.56
-40.66
-41.49
-41.49
-41.37
-41.81
-43.43
-46.71
-52.18
-60.27
-71.24
-84.69
-99.68
-115.03
-129.93
-144.49
-159.46
-175.52
-192.07
-206.72
-215.63
-214.81
-201.85
-176.72
-141.64
-99.78
-53.93
-5.63
44.76
97.32
151.73
206.49
258.87
304.99
340.53
361.55
365.52
352.13
323.39
283.13
235.89
186.01
137.02
91.94
53.51
24.25
5.71
-2.38
-2.47
1.4
5.28
6.67
5.42
3.28
2.76
6
14
26.45
41.75
57.13
68.84
72.85
65.96
47.19
18.79
-13.95
-44.06
-65.16
-73.41
-68.6
-53.95
-34.85
-17.39
-6.85
-6.88
-18.92
-42.14
-73.46
-108
-139.88
-163.29
-173.93
-169.96
-152.51
-125.41
-94.18
-64.62
-41.48
-27.53
-23.16
-26.79
-35.6
-46.64
-57.57
-67.15
-75.15
-81.71
-86.89
-90.14
-90.49
-86.84
-78.61
-65.97
-49.85
-31.53
-12.21
7.21
26.2
44.31
60.95
75.35
86.81
95.01
100.25
103.37
105.4
107.21
109.05
110.54
110.81
108.93
104.41
97.51
89.35
81.62
76.06
73.71
74.36
76.43
77.35
74.68
67.02
54.73
39.48
23.34
7.63
-7.65
-23.36
-40.33
-58.46
-76.6
-93.05
-106.29
-115.22
-118.94
-116.35
-106.05
-87.22
-60.54
-28.93
2.84
29.64
47.6
55.31
53.68
45.09
32.11
16.75
0.15
-17.17
-34.95
-53.12
-71.59
-90.41
-109.59
-129.27
-149.54
-170.38
-191.29
-210.94
-227.09
-236.78
-237.23
-226.84
-206.01
-177.3
-144.69
-112.43
-83.89
-61.1
-44.94
-35.81
-33.93
-39.22
-50.61
-65.55
-80.25
-90.57
-93.55
-88.32
-76.15
-59.47
-40.34
-19.5
3.75
30.53
61.27
94.86
128.85
160.08
185.6
203.22
211.74
210.85
200.9
182.73
157.53
126.82
92.53
57.17
23.93
-3.37
-20.49
-23.39
-8.87
24.42
75.19
139.06
208.8
275.54
330.51
367.19
382.61
377.83
356.99
325.66
289.22
251.71
215.65
182.25
151.99
124.78
100.16
77.28
55.07
32.62
9.45
-14.13
-37.34
-59.14
-78.87
-96.58
-112.97
-129.19
-146.23
-164.62
-184.19
-204.36
-224.49
-244.17
-263.58
-283.33
-304.33
-327.08
-351.18
-374.67
-394.13
-405.4
-404.85
-390.79
-364.22
-328.85
-289.9
-252.69
-221.27
-197.71
-182.26
-173.88
-171.12
-172.54
-176.98
-183.25
-189.87
-194.9
-196.01
-191.12
-179.1
-160.33
-136.54
-110.17
-83.53
-58.03
-34.32
-12.6
6.69
22.72
34.4
41.02
42.6
39.97
34.59
27.97
21.49
16.09
12.34
10.39
10.13
11.22
13.21
15.78
18.63
21.56
24.24
26.34
27.6
28.01
28.01
28.36
29.91
33.22
38.4
44.9
51.78
57.99
62.62
65.16
65.48
63.83
60.5
55.89
